# Pulseq sequence file
# Created by MATLAB mr toolbox

[VERSION]
major 1
minor 1
revision 0

# Format of blocks:
#  #  D RF  GX  GY  GZ ADC
[BLOCKS]
   1  0  1   0   0   1  0
   2  0  0   0   0   2  0
   3  1  0   0   0   0  0
   4  0  0   3   4   0  1
   5  0  0   0   0   5  0
   6  2  0   0   0   0  0
   7  0  1   0   0   1  0
   8  0  0   0   0   2  0
   9  1  0   0   0   0  0
  10  0  0   6   7   0  1
  11  0  0   0   0   5  0
  12  2  0   0   0   0  0
  13  0  1   0   0   1  0
  14  0  0   0   0   2  0
  15  1  0   0   0   0  0
  16  0  0   8   9   0  1
  17  0  0   0   0   5  0
  18  2  0   0   0   0  0
  19  0  1   0   0   1  0
  20  0  0   0   0   2  0
  21  1  0   0   0   0  0
  22  0  0  10  11   0  1
  23  0  0   0   0   5  0
  24  2  0   0   0   0  0
  25  0  1   0   0   1  0
  26  0  0   0   0   2  0
  27  1  0   0   0   0  0
  28  0  0  12  13   0  1
  29  0  0   0   0   5  0
  30  2  0   0   0   0  0
  31  0  1   0   0   1  0
  32  0  0   0   0   2  0
  33  1  0   0   0   0  0
  34  0  0  14  15   0  1
  35  0  0   0   0   5  0
  36  2  0   0   0   0  0
  37  0  1   0   0   1  0
  38  0  0   0   0   2  0
  39  1  0   0   0   0  0
  40  0  0  16  17   0  1
  41  0  0   0   0   5  0
  42  2  0   0   0   0  0
  43  0  1   0   0   1  0
  44  0  0   0   0   2  0
  45  1  0   0   0   0  0
  46  0  0  18  19   0  1
  47  0  0   0   0   5  0
  48  2  0   0   0   0  0
  49  0  1   0   0   1  0
  50  0  0   0   0   2  0
  51  1  0   0   0   0  0
  52  0  0  20  21   0  1
  53  0  0   0   0   5  0
  54  2  0   0   0   0  0
  55  0  1   0   0   1  0
  56  0  0   0   0   2  0
  57  1  0   0   0   0  0
  58  0  0  22  23   0  1
  59  0  0   0   0   5  0
  60  2  0   0   0   0  0
  61  0  1   0   0   1  0
  62  0  0   0   0   2  0
  63  1  0   0   0   0  0
  64  0  0  24  25   0  1
  65  0  0   0   0   5  0
  66  2  0   0   0   0  0
  67  0  1   0   0   1  0
  68  0  0   0   0   2  0
  69  1  0   0   0   0  0
  70  0  0  26  27   0  1
  71  0  0   0   0   5  0
  72  2  0   0   0   0  0
  73  0  1   0   0   1  0
  74  0  0   0   0   2  0
  75  1  0   0   0   0  0
  76  0  0  28  29   0  1
  77  0  0   0   0   5  0
  78  2  0   0   0   0  0
  79  0  1   0   0   1  0
  80  0  0   0   0   2  0
  81  1  0   0   0   0  0
  82  0  0  30  31   0  1
  83  0  0   0   0   5  0
  84  2  0   0   0   0  0
  85  0  1   0   0   1  0
  86  0  0   0   0   2  0
  87  1  0   0   0   0  0
  88  0  0  32  33   0  1
  89  0  0   0   0   5  0
  90  2  0   0   0   0  0
  91  0  1   0   0   1  0
  92  0  0   0   0   2  0
  93  1  0   0   0   0  0
  94  0  0  34  35   0  1
  95  0  0   0   0   5  0
  96  2  0   0   0   0  0
  97  0  1   0   0   1  0
  98  0  0   0   0   2  0
  99  1  0   0   0   0  0
 100  0  0  36  37   0  1
 101  0  0   0   0   5  0
 102  2  0   0   0   0  0
 103  0  1   0   0   1  0
 104  0  0   0   0   2  0
 105  1  0   0   0   0  0
 106  0  0  38  39   0  1
 107  0  0   0   0   5  0
 108  2  0   0   0   0  0
 109  0  1   0   0   1  0
 110  0  0   0   0   2  0
 111  1  0   0   0   0  0
 112  0  0  40  41   0  1
 113  0  0   0   0   5  0
 114  2  0   0   0   0  0
 115  0  1   0   0   1  0
 116  0  0   0   0   2  0
 117  1  0   0   0   0  0
 118  0  0  42  43   0  1
 119  0  0   0   0   5  0
 120  2  0   0   0   0  0
 121  0  1   0   0   1  0
 122  0  0   0   0   2  0
 123  1  0   0   0   0  0
 124  0  0  44  45   0  1
 125  0  0   0   0   5  0
 126  2  0   0   0   0  0
 127  0  1   0   0   1  0
 128  0  0   0   0   2  0
 129  1  0   0   0   0  0
 130  0  0  46  47   0  1
 131  0  0   0   0   5  0
 132  2  0   0   0   0  0
 133  0  1   0   0   1  0
 134  0  0   0   0   2  0
 135  1  0   0   0   0  0
 136  0  0  48  49   0  1
 137  0  0   0   0   5  0
 138  2  0   0   0   0  0
 139  0  1   0   0   1  0
 140  0  0   0   0   2  0
 141  1  0   0   0   0  0
 142  0  0  50  51   0  1
 143  0  0   0   0   5  0
 144  2  0   0   0   0  0
 145  0  1   0   0   1  0
 146  0  0   0   0   2  0
 147  1  0   0   0   0  0
 148  0  0  52  53   0  1
 149  0  0   0   0   5  0
 150  2  0   0   0   0  0
 151  0  1   0   0   1  0
 152  0  0   0   0   2  0
 153  1  0   0   0   0  0
 154  0  0  54  55   0  1
 155  0  0   0   0   5  0
 156  2  0   0   0   0  0
 157  0  1   0   0   1  0
 158  0  0   0   0   2  0
 159  1  0   0   0   0  0
 160  0  0  56  57   0  1
 161  0  0   0   0   5  0
 162  2  0   0   0   0  0
 163  0  1   0   0   1  0
 164  0  0   0   0   2  0
 165  1  0   0   0   0  0
 166  0  0  58  59   0  1
 167  0  0   0   0   5  0
 168  2  0   0   0   0  0
 169  0  1   0   0   1  0
 170  0  0   0   0   2  0
 171  1  0   0   0   0  0
 172  0  0  60  61   0  1
 173  0  0   0   0   5  0
 174  2  0   0   0   0  0
 175  0  1   0   0   1  0
 176  0  0   0   0   2  0
 177  1  0   0   0   0  0
 178  0  0  62  63   0  1
 179  0  0   0   0   5  0
 180  2  0   0   0   0  0
 181  0  1   0   0   1  0
 182  0  0   0   0   2  0
 183  1  0   0   0   0  0
 184  0  0  64  65   0  1
 185  0  0   0   0   5  0
 186  2  0   0   0   0  0
 187  0  1   0   0   1  0
 188  0  0   0   0   2  0
 189  1  0   0   0   0  0
 190  0  0  66  67   0  1
 191  0  0   0   0   5  0
 192  2  0   0   0   0  0
 193  0  1   0   0   1  0
 194  0  0   0   0   2  0
 195  1  0   0   0   0  0
 196  0  0  68  69   0  1
 197  0  0   0   0   5  0
 198  2  0   0   0   0  0
 199  0  1   0   0   1  0
 200  0  0   0   0   2  0
 201  1  0   0   0   0  0
 202  0  0  70  71   0  1
 203  0  0   0   0   5  0
 204  2  0   0   0   0  0
 205  0  1   0   0   1  0
 206  0  0   0   0   2  0
 207  1  0   0   0   0  0
 208  0  0  72  73   0  1
 209  0  0   0   0   5  0
 210  2  0   0   0   0  0
 211  0  1   0   0   1  0
 212  0  0   0   0   2  0
 213  1  0   0   0   0  0
 214  0  0  74  75   0  1
 215  0  0   0   0   5  0
 216  2  0   0   0   0  0
 217  0  1   0   0   1  0
 218  0  0   0   0   2  0
 219  1  0   0   0   0  0
 220  0  0  76  77   0  1
 221  0  0   0   0   5  0
 222  2  0   0   0   0  0
 223  0  1   0   0   1  0
 224  0  0   0   0   2  0
 225  1  0   0   0   0  0
 226  0  0  78  79   0  1
 227  0  0   0   0   5  0
 228  2  0   0   0   0  0
 229  0  1   0   0   1  0
 230  0  0   0   0   2  0
 231  1  0   0   0   0  0
 232  0  0  80  81   0  1
 233  0  0   0   0   5  0
 234  2  0   0   0   0  0
 235  0  1   0   0   1  0
 236  0  0   0   0   2  0
 237  1  0   0   0   0  0
 238  0  0  82  83   0  1
 239  0  0   0   0   5  0
 240  2  0   0   0   0  0
 241  0  1   0   0   1  0
 242  0  0   0   0   2  0
 243  1  0   0   0   0  0
 244  0  0  84  85   0  1
 245  0  0   0   0   5  0
 246  2  0   0   0   0  0
 247  0  1   0   0   1  0
 248  0  0   0   0   2  0
 249  1  0   0   0   0  0
 250  0  0  86  87   0  1
 251  0  0   0   0   5  0
 252  2  0   0   0   0  0
 253  0  1   0   0   1  0
 254  0  0   0   0   2  0
 255  1  0   0   0   0  0
 256  0  0  88  89   0  1
 257  0  0   0   0   5  0
 258  2  0   0   0   0  0
 259  0  1   0   0   1  0
 260  0  0   0   0   2  0
 261  1  0   0   0   0  0
 262  0  0  90  91   0  1
 263  0  0   0   0   5  0
 264  2  0   0   0   0  0
 265  0  1   0   0   1  0
 266  0  0   0   0   2  0
 267  1  0   0   0   0  0
 268  0  0  92  93   0  1
 269  0  0   0   0   5  0
 270  2  0   0   0   0  0
 271  0  1   0   0   1  0
 272  0  0   0   0   2  0
 273  1  0   0   0   0  0
 274  0  0  94  95   0  1
 275  0  0   0   0   5  0
 276  2  0   0   0   0  0
 277  0  1   0   0   1  0
 278  0  0   0   0   2  0
 279  1  0   0   0   0  0
 280  0  0  96  97   0  1
 281  0  0   0   0   5  0
 282  2  0   0   0   0  0
 283  0  1   0   0   1  0
 284  0  0   0   0   2  0
 285  1  0   0   0   0  0
 286  0  0  98  99   0  1
 287  0  0   0   0   5  0
 288  2  0   0   0   0  0
 289  0  1   0   0   1  0
 290  0  0   0   0   2  0
 291  1  0   0   0   0  0
 292  0  0 100 101   0  1
 293  0  0   0   0   5  0
 294  2  0   0   0   0  0
 295  0  1   0   0   1  0
 296  0  0   0   0   2  0
 297  1  0   0   0   0  0
 298  0  0 102 103   0  1
 299  0  0   0   0   5  0
 300  2  0   0   0   0  0
 301  0  1   0   0   1  0
 302  0  0   0   0   2  0
 303  1  0   0   0   0  0
 304  0  0 104 105   0  1
 305  0  0   0   0   5  0
 306  2  0   0   0   0  0
 307  0  1   0   0   1  0
 308  0  0   0   0   2  0
 309  1  0   0   0   0  0
 310  0  0 106 107   0  1
 311  0  0   0   0   5  0
 312  2  0   0   0   0  0
 313  0  1   0   0   1  0
 314  0  0   0   0   2  0
 315  1  0   0   0   0  0
 316  0  0 108 109   0  1
 317  0  0   0   0   5  0
 318  2  0   0   0   0  0
 319  0  1   0   0   1  0
 320  0  0   0   0   2  0
 321  1  0   0   0   0  0
 322  0  0 110 111   0  1
 323  0  0   0   0   5  0
 324  2  0   0   0   0  0
 325  0  1   0   0   1  0
 326  0  0   0   0   2  0
 327  1  0   0   0   0  0
 328  0  0 112 113   0  1
 329  0  0   0   0   5  0
 330  2  0   0   0   0  0
 331  0  1   0   0   1  0
 332  0  0   0   0   2  0
 333  1  0   0   0   0  0
 334  0  0 114 115   0  1
 335  0  0   0   0   5  0
 336  2  0   0   0   0  0
 337  0  1   0   0   1  0
 338  0  0   0   0   2  0
 339  1  0   0   0   0  0
 340  0  0 116 117   0  1
 341  0  0   0   0   5  0
 342  2  0   0   0   0  0
 343  0  1   0   0   1  0
 344  0  0   0   0   2  0
 345  1  0   0   0   0  0
 346  0  0 118 119   0  1
 347  0  0   0   0   5  0
 348  2  0   0   0   0  0
 349  0  1   0   0   1  0
 350  0  0   0   0   2  0
 351  1  0   0   0   0  0
 352  0  0 120 121   0  1
 353  0  0   0   0   5  0
 354  2  0   0   0   0  0
 355  0  1   0   0   1  0
 356  0  0   0   0   2  0
 357  1  0   0   0   0  0
 358  0  0 122 123   0  1
 359  0  0   0   0   5  0
 360  2  0   0   0   0  0
 361  0  1   0   0   1  0
 362  0  0   0   0   2  0
 363  1  0   0   0   0  0
 364  0  0 124 125   0  1
 365  0  0   0   0   5  0
 366  2  0   0   0   0  0
 367  0  1   0   0   1  0
 368  0  0   0   0   2  0
 369  1  0   0   0   0  0
 370  0  0 126 127   0  1
 371  0  0   0   0   5  0
 372  2  0   0   0   0  0
 373  0  1   0   0   1  0
 374  0  0   0   0   2  0
 375  1  0   0   0   0  0
 376  0  0 128 129   0  1
 377  0  0   0   0   5  0
 378  2  0   0   0   0  0
[RF]
1      109.717 1 2 0 0

# Format of trapezoid gradients:
# id amplitude rise flat fall
# ..      Hz/m   us   us   us
[TRAP]
 1       533333 100 1500 100
 2      -468864  90  820  90
 3       156250  30 6400  30
 4            0   0 6400   0
 5       755162 140 2120 140
 6       156245  30 6400  30
 7      1219.55  10 6400  10
 8       156231  30 6400  30
 9      2439.03  10 6400  10
10       156207  30 6400  30
11      3658.35  10 6400  10
12       156174  30 6400  30
13      4877.46  10 6400  10
14       156131  30 6400  30
15      6096.26  10 6400  10
16       156079  30 6400  30
17       7314.7  10 6400  10
18       156017  30 6400  30
19      8532.69  10 6400  10
20       155945  30 6400  30
21      9750.16  10 6400  10
22       155865  30 6400  30
23        10967  10 6400  10
24       155774  30 6400  30
25      12183.2  10 6400  10
26       155674  30 6400  30
27      13398.7  10 6400  10
28       155565  30 6400  30
29      14613.4  10 6400  10
30       155446  30 6400  30
31      15827.1  10 6400  10
32       155318  30 6400  30
33      17039.9  10 6400  10
34       155180  30 6400  30
35      18251.7  10 6400  10
36       155033  30 6400  30
37      19462.3  10 6400  10
38       154877  30 6400  30
39      20671.8  10 6400  10
40       154710  30 6400  30
41        21880  10 6400  10
42       154535  30 6400  30
43      23086.8  10 6400  10
44       154350  30 6400  30
45      24292.3  10 6400  10
46       154156  30 6400  30
47      25496.3  10 6400  10
48       153952  30 6400  30
49      26698.7  10 6400  10
50       153739  30 6400  30
51      27899.5  10 6400  10
52       153517  30 6400  30
53      29098.6  10 6400  10
54       153285  30 6400  30
55      30295.9  10 6400  10
56       153044  30 6400  30
57      31491.4  10 6400  10
58       152793  30 6400  30
59        32685  10 6400  10
60       152533  30 6400  30
61      33876.6  10 6400  10
62       152264  30 6400  30
63      35066.1  10 6400  10
64       151986  30 6400  30
65      36253.4  10 6400  10
66       151698  30 6400  30
67      37438.6  10 6400  10
68       151402  30 6400  30
69      38621.5  10 6400  10
70       151096  30 6400  30
71        39802  10 6400  10
72       150780  30 6400  30
73      40980.1  10 6400  10
74       150456  30 6400  30
75      42155.7  10 6400  10
76       150122  30 6400  30
77      43328.8  10 6400  10
78       149779  30 6400  30
79      44499.2  10 6400  10
80       149428  30 6400  30
81      45666.9  10 6400  10
82       149067  30 6400  30
83      46831.8  10 6400  10
84       148697  30 6400  30
85      47993.8  10 6400  10
86       148317  30 6400  30
87        49153  10 6400  10
88       147929  30 6400  30
89      50309.1  10 6400  10
90       147532  30 6400  30
91      51462.2  10 6400  10
92       147126  30 6400  30
93      52612.1  10 6400  10
94       146711  30 6400  30
95      53758.9  10 6400  10
96       146287  30 6400  30
97      54902.3  10 6400  10
98       145854  30 6400  30
99      56042.4  20 6400  20
100       145412  30 6400  30
101      57179.1  20 6400  20
102       144961  30 6400  30
103      58312.3  20 6400  20
104       144502  30 6400  30
105        59442  20 6400  20
106       144033  30 6400  30
107        60568  20 6400  20
108       143556  30 6400  30
109      61690.4  20 6400  20
110       143070  30 6400  30
111        62809  20 6400  20
112       142576  30 6400  30
113      63923.8  20 6400  20
114       142072  30 6400  30
115      65034.6  20 6400  20
116       141560  30 6400  30
117      66141.5  20 6400  20
118       141040  30 6400  30
119      67244.4  20 6400  20
120       140511  30 6400  30
121      68343.2  20 6400  20
122       139973  30 6400  30
123      69437.8  20 6400  20
124       139427  30 6400  30
125      70528.2  20 6400  20
126       138872  30 6400  30
127      71614.3  20 6400  20
128       138309  30 6400  30
129        72696  20 6400  20
130       137737  30 6400  30
131      73773.4  20 6400  20
132       137157  30 6400  30
133      74846.2  20 6400  20
134       136569  30 6400  30
135      75914.4  20 6400  20
136       135972  30 6400  30
137        76978  20 6400  20
138       135367  30 6400  30
139        78037  20 6400  20
140       134754  30 6400  30
141      79091.1  20 6400  20
142       134133  30 6400  30
143      80140.5  20 6400  20
144       133503  30 6400  30
145        81185  20 6400  20
146       132865  30 6400  30
147      82224.5  20 6400  20
148       132219  30 6400  30
149      83259.1  20 6400  20
150       131566  30 6400  30
151      84288.5  20 6400  20
152       130904  30 6400  30
153      85312.8  20 6400  20
154       130234  30 6400  30
155      86331.9  20 6400  20
156       129556  30 6400  30
157      87345.8  20 6400  20
158       128870  30 6400  30
159      88354.3  20 6400  20
160       128177  30 6400  30
161      89357.5  20 6400  20
162       127475  30 6400  30
163      90355.2  20 6400  20
164       126766  30 6400  30
165      91347.4  20 6400  20
166       126050  30 6400  30
167      92334.1  20 6400  20
168       125325  30 6400  30
169      93315.1  20 6400  20
170       124593  30 6400  30
171      94290.4  20 6400  20
172       123853  30 6400  30
173        95260  20 6400  20
174       123106  30 6400  30
175      96223.8  20 6400  20
176       122351  30 6400  30
177      97181.7  20 6400  20
178       121589  30 6400  30
179      98133.7  20 6400  20
180       120819  30 6400  30
181      99079.8  20 6400  20
182       120042  30 6400  30
183       100020  20 6400  20
184       119258  30 6400  30
185       100954  20 6400  20
186       118466  30 6400  30
187       101881  20 6400  20
188       117667  30 6400  30
189       102803  20 6400  20
190       116861  30 6400  30
191       103718  20 6400  20
192       116048  30 6400  30
193       104627  20 6400  20
194       115228  30 6400  30
195       105530  20 6400  20
196       114401  30 6400  30
197       106426  20 6400  20
198       113567  30 6400  30
199       107316  20 6400  20
200       112726  30 6400  30
201       108199  20 6400  20
202       111878  30 6400  30
203       109075  20 6400  20
204       111023  30 6400  30
205       109945  20 6400  20
206       110162  20 6400  20
207       110808  30 6400  30
208       109293  20 6400  20
209       111665  30 6400  30
210       108418  20 6400  20
211       112514  30 6400  30
212       107537  20 6400  20
213       113357  30 6400  30
214       106649  20 6400  20
215       114193  30 6400  30
216       105754  20 6400  20
217       115022  30 6400  30
218       104853  20 6400  20
219       115844  30 6400  30
220       103946  20 6400  20
221       116659  30 6400  30
222       103032  20 6400  20
223       117467  30 6400  30
224       102112  20 6400  20
225       118267  30 6400  30
226       101186  20 6400  20
227       119061  30 6400  30
228       100254  20 6400  20
229       119847  30 6400  30
230      99315.3  20 6400  20
231       120626  30 6400  30
232      98370.8  20 6400  20
233       121397  30 6400  30
234      97420.3  20 6400  20
235       122161  30 6400  30
236      96463.8  20 6400  20
237       122918  30 6400  30
238      95501.5  20 6400  20
239       123667  30 6400  30
240      94533.4  20 6400  20
241       124409  30 6400  30
242      93559.5  20 6400  20
243       125143  30 6400  30
244      92579.9  20 6400  20
245       125869  30 6400  30
246      91594.6  20 6400  20
247       126588  30 6400  30
248      90603.8  20 6400  20
249       127299  30 6400  30
250      89607.4  20 6400  20
251       128002  30 6400  30
252      88605.6  20 6400  20
253       128698  30 6400  30
254      87598.4  20 6400  20
255       129385  30 6400  30
256      86585.9  20 6400  20
257       130065  30 6400  30
258      85568.1  20 6400  20
259       130737  30 6400  30
260      84545.1  20 6400  20
261       131401  30 6400  30
262      83516.9  20 6400  20
263       132057  30 6400  30
264      82483.6  20 6400  20
265       132705  30 6400  30
266      81445.3  20 6400  20
267       133344  30 6400  30
268      80402.1  20 6400  20
269       133976  30 6400  30
270      79353.9  20 6400  20
271       134599  30 6400  30
272        78301  20 6400  20
273       135215  30 6400  30
274      77243.2  20 6400  20
275       135822  30 6400  30
276      76180.8  20 6400  20
277       136421  30 6400  30
278      75113.7  20 6400  20
279       137011  30 6400  30
280        74042  20 6400  20
281       137593  30 6400  30
282      72965.8  20 6400  20
283       138167  30 6400  30
284      71885.2  20 6400  20
285       138732  30 6400  30
286      70800.2  20 6400  20
287       139289  30 6400  30
288      69710.8  20 6400  20
289       139837  30 6400  30
290      68617.3  20 6400  20
291       140377  30 6400  30
292      67519.5  20 6400  20
293       140908  30 6400  30
294      66417.6  20 6400  20
295       141431  30 6400  30
296      65311.7  20 6400  20
297       141945  30 6400  30
298      64201.8  20 6400  20
299       142451  30 6400  30
300        63088  20 6400  20
301       142947  30 6400  30
302      61970.4  20 6400  20
303       143435  30 6400  30
304        60849  20 6400  20
305       143915  30 6400  30
306      59723.9  20 6400  20
307       144385  30 6400  30
308      58595.1  20 6400  20
309       144847  30 6400  30
310      57462.8  20 6400  20
311       145300  30 6400  30
312      56326.9  20 6400  20
313       145744  30 6400  30
314      55187.7  10 6400  10
315       146179  30 6400  30
316        54045  10 6400  10
317       146606  30 6400  30
318      52899.1  10 6400  10
319       147023  30 6400  30
320        51750  10 6400  10
321       147431  30 6400  30
322      50597.7  10 6400  10
323       147831  30 6400  30
324      49442.3  10 6400  10
325       148221  30 6400  30
326      48283.9  10 6400  10
327       148603  30 6400  30
328      47122.6  10 6400  10
329       148975  30 6400  30
330      45958.4  10 6400  10
331       149338  30 6400  30
332      44791.4  10 6400  10
333       149692  30 6400  30
334      43621.6  10 6400  10
335       150037  30 6400  30
336      42449.2  10 6400  10
337       150373  30 6400  30
338      41274.3  10 6400  10
339       150700  30 6400  30
340      40096.8  10 6400  10
341       151018  30 6400  30
342      38916.9  10 6400  10
343       151326  30 6400  30
344      37734.6  10 6400  10
345       151625  30 6400  30
346        36550  10 6400  10
347       151915  30 6400  30
348      35363.1  10 6400  10
349       152196  30 6400  30
350      34174.1  10 6400  10
351       152467  30 6400  30
352      32983.1  10 6400  10
353       152729  30 6400  30
354        31790  10 6400  10
355       152982  30 6400  30
356        30595  10 6400  10
357       153225  30 6400  30
358      29398.1  10 6400  10
359       153459  30 6400  30
360      28199.5  10 6400  10
361       153684  30 6400  30
362      26999.1  10 6400  10
363       153900  30 6400  30
364        25797  10 6400  10
365       154106  30 6400  30
366      24593.4  10 6400  10
367       154302  30 6400  30
368      23388.3  10 6400  10
369       154490  30 6400  30
370      22181.8  10 6400  10
371       154667  30 6400  30
372      20973.9  10 6400  10
373       154836  30 6400  30
374      19764.8  10 6400  10
375       154995  30 6400  30
376      18554.4  10 6400  10
377       155144  30 6400  30
378        17343  10 6400  10
379       155285  30 6400  30
380      16130.4  10 6400  10
381       155415  30 6400  30
382      14916.9  10 6400  10
383       155536  30 6400  30
384      13702.5  10 6400  10
385       155648  30 6400  30
386      12487.2  10 6400  10
387       155750  30 6400  30
388      11271.2  10 6400  10
389       155843  30 6400  30
390      10054.4  10 6400  10
391       155926  30 6400  30
392      8837.11  10 6400  10
393       156000  30 6400  30
394      7619.24  10 6400  10
395       156064  30 6400  30
396      6400.91  10 6400  10
397       156119  30 6400  30
398      5182.19  10 6400  10
399       156164  30 6400  30
400      3963.15  10 6400  10
401       156200  30 6400  30
402      2743.87  10 6400  10
403       156226  30 6400  30
404      1524.43  10 6400  10
405       156243  30 6400  30
406       304.89  10 6400  10
407     -914.667  10 6400  10
408       156247  30 6400  30
409     -2134.17  10 6400  10
410       156235  30 6400  30
411     -3353.54  10 6400  10
412       156214  30 6400  30
413     -4572.71  10 6400  10
414       156183  30 6400  30
415     -5791.59  10 6400  10
416       156143  30 6400  30
417     -7010.13  10 6400  10
418       156093  30 6400  30
419     -8228.24  10 6400  10
420       156033  30 6400  30
421     -9445.85  10 6400  10
422       155964  30 6400  30
423     -10662.9  10 6400  10
424       155886  30 6400  30
425     -11879.3  10 6400  10
426       155798  30 6400  30
427     -13094.9  10 6400  10
428       155700  30 6400  30
429     -14309.8  10 6400  10
430       155593  30 6400  30
431     -15523.8  10 6400  10
432       155477  30 6400  30
433     -16736.8  10 6400  10
434       155351  30 6400  30
435     -17948.8  10 6400  10
436       155216  30 6400  30
437     -19159.8  10 6400  10
438       155071  30 6400  30
439     -20369.5  10 6400  10
440       154917  30 6400  30
441       -21578  10 6400  10
442       154753  30 6400  30
443     -22785.3  10 6400  10
444       154580  30 6400  30
445     -23991.1  10 6400  10
446       154397  30 6400  30
447     -25195.4  10 6400  10
448       154205  30 6400  30
449     -26398.3  10 6400  10
450       154004  30 6400  30
451     -27599.5  10 6400  10
452       153793  30 6400  30
453       -28799  10 6400  10
454       153573  30 6400  30
455     -29996.8  10 6400  10
456       153344  30 6400  30
457     -31192.7  10 6400  10
458       153105  30 6400  30
459     -32386.8  10 6400  10
460       152857  30 6400  30
461     -33578.9  10 6400  10
462       152599  30 6400  30
463     -34768.9  10 6400  10
464       152332  30 6400  30
465     -35956.8  10 6400  10
466       152056  30 6400  30
467     -37142.5  10 6400  10
468       151771  30 6400  30
469       -38326  10 6400  10
470       151477  30 6400  30
471     -39507.1  10 6400  10
472       151173  30 6400  30
473     -40685.8  10 6400  10
474       150860  30 6400  30
475     -41862.1  10 6400  10
476       150538  30 6400  30
477     -43035.8  10 6400  10
478       150206  30 6400  30
479     -44206.8  10 6400  10
480       149866  30 6400  30
481     -45375.2  10 6400  10
482       149516  30 6400  30
483     -46540.8  10 6400  10
484       149158  30 6400  30
485     -47703.6  10 6400  10
486       148790  30 6400  30
487     -48863.5  10 6400  10
488       148413  30 6400  30
489     -50020.4  10 6400  10
490       148027  30 6400  30
491     -51174.2  10 6400  10
492       147632  30 6400  30
493     -52324.9  10 6400  10
494       147228  30 6400  30
495     -53472.5  10 6400  10
496       146815  30 6400  30
497     -54616.8  10 6400  10
498       146394  30 6400  30
499     -55757.7  20 6400  20
500       145963  30 6400  30
501     -56895.3  20 6400  20
502       145523  30 6400  30
503     -58029.4  20 6400  20
504       145075  30 6400  30
505     -59159.9  20 6400  20
506       144617  30 6400  30
507     -60286.9  20 6400  20
508       144151  30 6400  30
509     -61410.2  20 6400  20
510       143676  30 6400  30
511     -62529.7  20 6400  20
512       143193  30 6400  30
513     -63645.4  20 6400  20
514       142700  30 6400  30
515     -64757.3  20 6400  20
516       142199  30 6400  30
517     -65865.2  20 6400  20
518       141689  30 6400  30
519     -66969.1  20 6400  20
520       141171  30 6400  30
521     -68068.9  20 6400  20
522       140644  30 6400  30
523     -69164.6  20 6400  20
524       140108  30 6400  30
525       -70256  20 6400  20
526       139564  30 6400  30
527     -71343.2  20 6400  20
528       139012  30 6400  30
529       -72426  20 6400  20
530       138450  30 6400  30
531     -73504.4  20 6400  20
532       137881  30 6400  30
533     -74578.4  20 6400  20
534       137303  30 6400  30
535     -75647.8  20 6400  20
536       136717  30 6400  30
537     -76712.6  20 6400  20
538       136122  30 6400  30
539     -77772.7  20 6400  20
540       135519  30 6400  30
541     -78828.1  20 6400  20
542       134908  30 6400  30
543     -79878.6  20 6400  20
544       134289  30 6400  30
545     -80924.3  20 6400  20
546       133661  30 6400  30
547     -81965.1  20 6400  20
548       133025  30 6400  30
549     -83000.9  20 6400  20
550       132382  30 6400  30
551     -84031.6  20 6400  20
552       131730  30 6400  30
553     -85057.2  20 6400  20
554       131070  30 6400  30
555     -86077.7  20 6400  20
556       130402  30 6400  30
557     -87092.8  20 6400  20
558       129726  30 6400  30
559     -88102.7  20 6400  20
560       129043  30 6400  30
561     -89107.2  20 6400  20
562       128351  30 6400  30
563     -90106.3  20 6400  20
564       127652  30 6400  30
565     -91099.9  20 6400  20
566       126944  30 6400  30
567     -92087.9  20 6400  20
568       126229  30 6400  30
569     -93070.4  20 6400  20
570       125507  30 6400  30
571     -94047.1  20 6400  20
572       124777  30 6400  30
573     -95018.2  20 6400  20
574       124039  30 6400  30
575     -95983.4  20 6400  20
576       123293  30 6400  30
577     -96942.8  20 6400  20
578       122540  30 6400  30
579     -97896.3  20 6400  20
580       121780  30 6400  30
581     -98843.8  20 6400  20
582       121012  30 6400  30
583     -99785.3  20 6400  20
584       120237  30 6400  30
585      -100721  20 6400  20
586       119455  30 6400  30
587      -101650  20 6400  20
588       118665  30 6400  30
589      -102573  20 6400  20
590       117868  30 6400  30
591      -103490  20 6400  20
592       117064  30 6400  30
593      -104401  20 6400  20
594       116252  30 6400  30
595      -105305  20 6400  20
596       115434  30 6400  30
597      -106202  20 6400  20
598       114608  30 6400  30
599      -107094  20 6400  20
600       113776  30 6400  30
601      -107979  20 6400  20
602       112937  30 6400  30
603      -108857  20 6400  20
604       112090  30 6400  30
605      -109728  20 6400  20
606       111237  30 6400  30
607      -110593  20 6400  20
608       110378  20 6400  20
609      -111451  30 6400  30
610       109511  20 6400  20
611      -112303  30 6400  30
612       108638  20 6400  20
613      -113147  30 6400  30
614       107758  20 6400  20
615      -113985  30 6400  30
616       106872  20 6400  20
617      -114815  30 6400  30
618       105979  20 6400  20
619      -115639  30 6400  30
620       105079  20 6400  20
621      -116456  30 6400  30
622       104173  20 6400  20
623      -117265  30 6400  30
624       103261  20 6400  20
625      -118068  30 6400  30
626       102343  20 6400  20
627      -118863  30 6400  30
628       101418  20 6400  20
629      -119651  30 6400  30
630       100487  20 6400  20
631      -120432  30 6400  30
632      99550.5  20 6400  20
633      -121205  30 6400  30
634      98607.5  20 6400  20
635      -121971  30 6400  30
636      97658.5  20 6400  20
637      -122729  30 6400  30
638      96703.5  20 6400  20
639      -123480  30 6400  30
640      95742.6  20 6400  20
641      -124224  30 6400  30
642      94775.9  20 6400  20
643      -124960  30 6400  30
644      93803.5  20 6400  20
645      -125688  30 6400  30
646      92825.3  20 6400  20
647      -126409  30 6400  30
648      91841.4  20 6400  20
649      -127122  30 6400  30
650        90852  20 6400  20
651      -127827  30 6400  30
652        89857  20 6400  20
653      -128525  30 6400  30
654      88856.6  20 6400  20
655      -129214  30 6400  30
656      87850.7  20 6400  20
657      -129896  30 6400  30
658      86839.5  20 6400  20
659      -130570  30 6400  30
660        85823  20 6400  20
661      -131236  30 6400  30
662      84801.3  20 6400  20
663      -131894  30 6400  30
664      83774.4  20 6400  20
665      -132543  30 6400  30
