# Pulseq sequence file
# Created by PyPulseq

[VERSION]
major 1
minor 5
revision 0

[DEFINITIONS]
AdcRasterTime 1e-07 
BlockDurationRaster 1e-05 
GradientRasterTime 1e-05 
RadiofrequencyRasterTime 1e-06 
TotalDuration 7.019 

# Format of blocks:
# NUM DUR RF  GX  GY  GZ  ADC  EXT
[BLOCKS]
 1 400   1   0   0   0  0  0
 2 100000   0   0   0   0  0  0
 3 500   2   0   0   0  0  0
 4 100000   0   0   0   0  0  0
 5 400   3   0   0   0  0  0
 6 100000   0   0   0   0  0  0
 7 100   4   0   0   0  0  0
 8 100000   0   0   0   0  0  0
 9 200   5   0   0   0  0  0
10 100000   0   0   0   0  0  0
11 100   6   0   0   0  0  0
12 100000   0   0   0   0  0  0
13 100   7   0   0   0  0  0
14 100000   0   0   0   0  0  0
15 100   8   0   0   0  0  0

# Format of RF events:
# id ampl. mag_id phase_id time_shape_id center delay freqPPm phasePPM freq phase use
# ..   Hz      ..       ..            ..     us    us     ppm  rad/MHz   Hz   rad  ..
# Field "use" is the initial of: excitation refocusing inversion saturation preparation other undefined
[RF]
1      159.155 1 2 0 2000 0 0 0 0 0 u
2      159.155 1 2 0 2000 1000 0 0 0 0 u
3          250 1 2 0 2000 0 0 0 0 0 u
4      999.988 3 4 0 500 0 0 0 0 0 u
5      499.999 5 6 0 1000 0 0 0 0 1.5708 u
6      999.988 3 4 0 500 0 0 0 1000 1.5708 u
7      316.492 7 4 0 500 0 0 0 0 0 u
8      1018.14 8 4 0 500 0 0 0 0 0 u

# Sequence Shapes
[SHAPES]

shape_id 1
num_samples 4000
3.5e-06
1e-07
0
0
0
1e-07
0
1e-07
0
1e-07
0
1e-07
0
1e-07
0
1e-07
0
1e-07
0
1e-07
1e-07
0
0
1e-07
0
1e-07
0
1e-07
1e-07
0
0
1e-07
0
1e-07
1e-07
0
0
1e-07
1e-07
0
0
1e-07
1e-07
0
0
1e-07
1e-07
0
0
1e-07
1e-07
1
0
1e-07
1e-07
1
0
1e-07
1e-07
3
0
1e-07
1e-07
5
0
1e-07
1e-07
10
2e-07
1e-07
1e-07
5
2e-07
1e-07
1e-07
2
2e-07
1e-07
1e-07
0
2e-07
1e-07
1e-07
0
2e-07
1e-07
1e-07
0
2e-07
1e-07
1e-07
0
2e-07
1e-07
2e-07
1e-07
2e-07
1e-07
2e-07
1e-07
2e-07
2e-07
0
1e-07
2e-07
1e-07
2e-07
2e-07
0
1e-07
2e-07
2e-07
1
1e-07
2e-07
2e-07
4
1e-07
2e-07
2e-07
3
3e-07
2e-07
2e-07
4
3e-07
2e-07
2e-07
1
3e-07
2e-07
2e-07
0
3e-07
2e-07
3e-07
2e-07
3e-07
2e-07
3e-07
2e-07
3e-07
3e-07
0
2e-07
3e-07
3e-07
2
2e-07
3e-07
3e-07
7
4e-07
3e-07
3e-07
1
4e-07
3e-07
3e-07
0
4e-07
3e-07
4e-07
3e-07
4e-07
3e-07
4e-07
4e-07
0
3e-07
4e-07
4e-07
9
5e-07
4e-07
4e-07
0
5e-07
4e-07
4e-07
0
5e-07
5e-07
0
4e-07
5e-07
5e-07
0
4e-07
5e-07
5e-07
5
6e-07
5e-07
5e-07
1
6e-07
5e-07
6e-07
6e-07
0
5e-07
6e-07
6e-07
2
5e-07
7e-07
6e-07
6e-07
2
7e-07
6e-07
7e-07
6e-07
7e-07
7e-07
0
6e-07
7e-07
7e-07
4
8e-07
7e-07
8e-07
7e-07
8e-07
7e-07
8e-07
8e-07
5
9e-07
8e-07
9e-07
8e-07
9e-07
9e-07
5
1e-06
9e-07
9e-07
0
1e-06
1e-06
6
1.1e-06
1e-06
1.1e-06
1.1e-06
4
1.2e-06
1.1e-06
1.2e-06
1.1e-06
1.2e-06
1.2e-06
2
1.3e-06
1.2e-06
1.3e-06
1.2e-06
1.3e-06
1.3e-06
2
1.4e-06
1.3e-06
1.4e-06
1.3e-06
1.4e-06
1.4e-06
1
1.5e-06
1.4e-06
1.5e-06
1.4e-06
1.5e-06
1.5e-06
0
1.6e-06
1.5e-06
1.5e-06
0
1.6e-06
1.6e-06
3
1.7e-06
1.6e-06
1.7e-06
1.7e-06
2
1.8e-06
1.7e-06
1.8e-06
1.8e-06
1
1.9e-06
1.8e-06
1.9e-06
1.9e-06
3
2e-06
2e-06
3
2.1e-06
2.1e-06
3
2.2e-06
2.2e-06
2
2.3e-06
2.2e-06
2.3e-06
2.3e-06
0
2.4e-06
2.3e-06
2.4e-06
2.4e-06
1
2.5e-06
2.5e-06
3
2.6e-06
2.6e-06
1
2.7e-06
2.7e-06
3
2.8e-06
2.8e-06
1
2.9e-06
2.9e-06
2
3e-06
3e-06
1
3.1e-06
3.1e-06
2
3.2e-06
3.2e-06
1
3.3e-06
3.3e-06
1
3.4e-06
3.4e-06
2
3.5e-06
3.5e-06
0
3.6e-06
3.6e-06
2
3.7e-06
3.7e-06
0
3.8e-06
3.8e-06
1
3.9e-06
3.9e-06
1
4e-06
4e-06
1
4.1e-06
4.1e-06
0
4.2e-06
4.2e-06
1
4.3e-06
4.3e-06
0
4.4e-06
4.4e-06
1
4.5e-06
4.5e-06
0
4.6e-06
4.6e-06
1
4.7e-06
4.7e-06
0
4.8e-06
4.8e-06
0
4.9e-06
4.9e-06
1
5e-06
5.1e-06
5.1e-06
1
5.2e-06
5.2e-06
0
5.3e-06
5.3e-06
0
5.4e-06
5.4e-06
0
5.5e-06
5.5e-06
0
5.6e-06
5.6e-06
0
5.7e-06
5.7e-06
0
5.8e-06
5.8e-06
0
5.9e-06
5.9e-06
0
6e-06
6.1e-06
6.1e-06
1
6.2e-06
6.3e-06
6.3e-06
0
6.4e-06
6.4e-06
0
6.5e-06
6.5e-06
0
6.7e-06
6.6e-06
6.8e-06
6.7e-06
6.9e-06
6.9e-06
0
7e-06
7e-06
0
7.1e-06
7.1e-06
0
7.3e-06
7.2e-06
7.4e-06
7.4e-06
0
7.5e-06
7.5e-06
0
7.7e-06
7.6e-06
7.8e-06
7.8e-06
0
7.9e-06
7.9e-06
0
8.1e-06
8.1e-06
1
8.3e-06
8.3e-06
0
8.4e-06
8.4e-06
0
8.5e-06
8.6e-06
8.7e-06
8.8e-06
8.8e-06
0
8.9e-06
9e-06
9.1e-06
9.1e-06
0
9.2e-06
9.3e-06
9.4e-06
9.5e-06
9.5e-06
0
9.7e-06
9.7e-06
0
9.8e-06
9.9e-06
9.9e-06
0
1.01e-05
1.01e-05
0
1.03e-05
1.03e-05
0
1.04e-05
1.05e-05
1.06e-05
1.06e-05
0
1.08e-05
1.09e-05
1.09e-05
0
1.11e-05
1.11e-05
0
1.12e-05
1.14e-05
1.14e-05
0
1.15e-05
1.16e-05
1.18e-05
1.18e-05
0
1.19e-05
1.2e-05
1.21e-05
1.23e-05
1.23e-05
0
1.24e-05
1.26e-05
1.26e-05
0
1.28e-05
1.28e-05
0
1.3e-05
1.31e-05
1.31e-05
0
1.33e-05
1.35e-05
1.35e-05
0
1.36e-05
1.38e-05
1.38e-05
0
1.4e-05
1.41e-05
1.42e-05
1.43e-05
1.45e-05
1.46e-05
1.47e-05
1.48e-05
1.49e-05
1.51e-05
1.52e-05
1.53e-05
1.54e-05
1.56e-05
1.57e-05
1.58e-05
1.6e-05
1.6e-05
0
1.63e-05
1.63e-05
0
1.65e-05
1.66e-05
1.68e-05
1.69e-05
1.7e-05
1.72e-05
1.73e-05
1.75e-05
1.76e-05
1.77e-05
1.79e-05
1.8e-05
1.82e-05
1.83e-05
1.85e-05
1.86e-05
1.88e-05
1.89e-05
1.91e-05
1.93e-05
1.93e-05
0
1.96e-05
1.97e-05
1.99e-05
2e-05
2.02e-05
2.03e-05
2.06e-05
2.06e-05
0
2.09e-05
2.1e-05
2.12e-05
2.13e-05
2.15e-05
2.17e-05
2.19e-05
2.2e-05
2.22e-05
2.24e-05
2.26e-05
2.28e-05
2.29e-05
2.31e-05
2.33e-05
2.35e-05
2.36e-05
2.39e-05
2.4e-05
2.43e-05
2.44e-05
2.46e-05
2.48e-05
2.5e-05
2.52e-05
2.54e-05
2.56e-05
2.58e-05
2.6e-05
2.62e-05
2.64e-05
2.66e-05
2.68e-05
2.71e-05
2.72e-05
2.74e-05
2.77e-05
2.79e-05
2.81e-05
2.83e-05
2.85e-05
2.88e-05
2.9e-05
2.92e-05
2.94e-05
2.97e-05
2.98e-05
3.01e-05
3.04e-05
3.06e-05
3.08e-05
3.1e-05
3.13e-05
3.15e-05
3.18e-05
3.2e-05
3.23e-05
3.25e-05
3.27e-05
3.3e-05
3.33e-05
3.35e-05
3.37e-05
3.4e-05
3.43e-05
3.45e-05
3.48e-05
3.51e-05
3.53e-05
3.56e-05
3.58e-05
3.62e-05
3.64e-05
3.66e-05
3.7e-05
3.72e-05
3.75e-05
3.78e-05
3.8e-05
3.84e-05
3.86e-05
3.9e-05
3.92e-05
3.95e-05
3.98e-05
4.01e-05
4.04e-05
4.07e-05
4.1e-05
4.13e-05
4.16e-05
4.19e-05
4.22e-05
4.25e-05
4.29e-05
4.32e-05
4.34e-05
4.38e-05
4.42e-05
4.44e-05
4.48e-05
4.51e-05
4.54e-05
4.58e-05
4.61e-05
4.64e-05
4.68e-05
4.71e-05
4.75e-05
4.78e-05
4.81e-05
4.85e-05
4.89e-05
4.92e-05
4.95e-05
4.99e-05
5.03e-05
5.07e-05
5.1e-05
5.13e-05
5.18e-05
5.21e-05
5.25e-05
5.28e-05
5.33e-05
5.36e-05
5.4e-05
5.44e-05
5.48e-05
5.52e-05
5.55e-05
5.6e-05
5.64e-05
5.67e-05
5.72e-05
5.76e-05
5.79e-05
5.84e-05
5.88e-05
5.92e-05
5.97e-05
6e-05
6.05e-05
6.09e-05
6.13e-05
6.18e-05
6.22e-05
6.26e-05
6.31e-05
6.35e-05
6.39e-05
6.44e-05
6.49e-05
6.53e-05
6.57e-05
6.62e-05
6.67e-05
6.71e-05
6.76e-05
6.81e-05
6.85e-05
6.9e-05
6.95e-05
7e-05
7.04e-05
7.1e-05
7.14e-05
7.19e-05
7.24e-05
7.29e-05
7.34e-05
7.39e-05
7.44e-05
7.49e-05
7.54e-05
7.59e-05
7.65e-05
7.7e-05
7.75e-05
7.8e-05
7.85e-05
7.91e-05
7.96e-05
8.02e-05
8.07e-05
8.12e-05
8.18e-05
8.23e-05
8.29e-05
8.34e-05
8.4e-05
8.46e-05
8.51e-05
8.57e-05
8.63e-05
8.68e-05
8.75e-05
8.8e-05
8.86e-05
8.92e-05
8.97e-05
9.04e-05
9.1e-05
9.15e-05
9.22e-05
9.28e-05
9.34e-05
9.4e-05
9.46e-05
9.52e-05
9.59e-05
9.65e-05
9.71e-05
9.78e-05
9.84e-05
9.91e-05
9.97e-05
0.0001003
0.000101
0.0001017
0.0001023
0.0001029
0.0001037
0.0001043
0.000105
0.0001057
0.0001063
0.000107
0.0001078
0.0001084
0.0001091
0.0001098
0.0001105
0.0001112
0.000112
0.0001126
0.0001134
0.0001141
0.0001148
0.0001156
0.0001162
0.0001171
0.0001177
0.0001185
0.0001193
0.00012
0.0001207
0.0001216
0.0001223
0.000123
0.0001239
0.0001246
0.0001254
0.0001261
0.000127
0.0001278
0.0001285
0.0001294
0.0001301
0.000131
0.0001318
0.0001326
0.0001334
0.0001343
0.000135
0.0001359
0.0001368
0.0001376
0.0001384
0.0001393
0.0001402
0.000141
0.0001418
0.0001428
0.0001436
0.0001444
0.0001454
0.0001463
0.0001471
0.000148
0.000149
0.0001498
0.0001507
0.0001517
0.0001525
0.0001535
0.0001544
0.0001554
0.0001563
0.0001572
0.0001581
0.0001591
0.0001601
0.000161
0.000162
0.0001629
0.0001639
0.0001649
0.0001658
0.0001669
0.0001678
0.0001688
0.0001698
0.0001709
0.0001718
0.0001728
0.0001739
0.0001749
0.0001759
0.0001769
0.000178
0.000179
0.0001801
0.0001811
0.0001821
0.0001833
0.0001842
0.0001854
0.0001864
0.0001875
0.0001886
0.0001897
0.0001908
0.0001918
0.000193
0.0001941
0.0001952
0.0001963
0.0001975
0.0001985
0.0001997
0.0002009
0.0002019
0.0002032
0.0002043
0.0002054
0.0002066
0.0002078
0.0002089
0.0002102
0.0002113
0.0002125
0.0002137
0.0002149
0.0002161
0.0002173
0.0002185
0.0002198
0.0002209
0.0002222
0.0002235
0.0002247
0.0002259
0.0002272
0.0002284
0.0002297
0.000231
0.0002322
0.0002335
0.0002348
0.0002361
0.0002374
0.0002387
0.00024
0.0002413
0.0002426
0.000244
0.0002452
0.0002466
0.000248
0.0002492
0.0002507
0.0002519
0.0002534
0.0002547
0.0002561
0.0002574
0.0002589
0.0002602
0.0002616
0.000263
0.0002644
0.0002659
0.0002672
0.0002687
0.0002701
0.0002715
0.000273
0.0002744
0.0002758
0.0002773
0.0002788
0.0002802
0.0002817
0.0002832
0.0002846
0.0002862
0.0002876
0.0002892
0.0002906
0.0002922
0.0002936
0.0002952
0.0002968
0.0002982
0.0002998
0.0003014
0.0003029
0.0003044
0.000306
0.0003076
0.0003091
0.0003108
0.0003123
0.0003139
0.0003155
0.0003171
0.0003188
0.0003203
0.0003219
0.0003236
0.0003252
0.0003269
0.0003285
0.0003301
0.0003318
0.0003335
0.0003351
0.0003368
0.0003385
0.0003401
0.0003419
0.0003435
0.0003453
0.0003469
0.0003487
0.0003504
0.0003521
0.0003539
0.0003556
0.0003573
0.0003591
0.0003608
0.0003626
0.0003644
0.0003661
0.0003679
0.0003697
0.0003715
0.0003733
0.0003751
0.0003769
0.0003787
0.0003805
0.0003824
0.0003841
0.0003861
0.0003878
0.0003898
0.0003915
0.0003935
0.0003953
0.0003971
0.0003991
0.0004009
0.0004029
0.0004047
0.0004066
0.0004085
0.0004105
0.0004124
0.0004143
0.0004162
0.0004182
0.0004201
0.000422
0.000424
0.000426
0.000428
0.0004299
0.0004319
0.0004339
0.0004358
0.0004379
0.0004399
0.0004418
0.0004439
0.000446
0.0004479
0.00045
0.000452
0.000454
0.0004561
0.0004582
0.0004602
0.0004623
0.0004643
0.0004664
0.0004686
0.0004706
0.0004727
0.0004748
0.0004769
0.000479
0.0004811
0.0004833
0.0004854
0.0004875
0.0004897
0.0004918
0.0004939
0.0004962
0.0004982
0.0005005
0.0005026
0.0005048
0.000507
0.0005092
0.0005114
0.0005136
0.0005158
0.000518
0.0005202
0.0005225
0.0005246
0.000527
0.0005291
0.0005314
0.0005337
0.0005359
0.0005382
0.0005404
0.0005427
0.000545
0.0005473
0.0005496
0.0005519
0.0005541
0.0005565
0.0005588
0.0005611
0.0005634
0.0005658
0.0005681
0.0005704
0.0005728
0.0005751
0.0005775
0.0005798
0.0005822
0.0005846
0.0005869
0.0005893
0.0005917
0.0005941
0.0005965
0.0005988
0.0006013
0.0006037
0.0006061
0.0006086
0.0006109
0.0006134
0.0006158
0.0006182
0.0006207
0.0006232
0.0006256
0.000628
0.0006305
0.000633
0.0006355
0.0006379
0.0006404
0.0006429
0.0006454
0.0006479
0.0006504
0.0006529
0.0006554
0.0006579
0.0006604
0.000663
0.0006654
0.0006681
0.0006705
0.0006731
0.0006756
0.0006782
0.0006807
0.0006833
0.0006859
0.0006884
0.0006909
0.0006936
0.0006961
0.0006988
0.0007013
0.0007038
0.0007065
0.0007091
0.0007117
0.0007143
0.0007169
0.0007195
0.0007221
0.0007248
0.0007274
0.00073
0.0007326
0.0007353
0.0007379
0.0007405
0.0007432
0.0007459
0.0007485
0.0007511
0.0007539
0.0007564
0.0007592
0.0007618
0.0007645
0.0007672
0.0007698
0.0007726
0.0007752
0.0007779
0.0007806
0.0007833
0.000786
0.0007887
0.0007914
0.0007941
0.0007968
0.0007996
0.0008022
0.000805
0.0008077
0.0008104
0.0008131
0.0008159
0.0008186
0.0008214
0.000824
0.0008268
0.0008296
0.0008323
0.000835
0.0008378
0.0008406
0.0008433
0.000846
0.0008488
0.0008516
0.0008543
0.0008571
0.0008599
0.0008626
0.0008654
0.0008682
0.0008709
0.0008737
0.0008765
0.0008793
0.000882
0.0008848
0.0008877
0.0008903
0.0008932
0.000896
0.0008987
0.0009016
0.0009043
0.0009071
0.0009099
0.0009127
0.0009155
0.0009183
0.0009211
0.0009239
0.0009267
0.0009294
0.0009323
0.0009351
0.0009379
0.0009407
0.0009434
0.0009463
0.0009491
0.0009519
0.0009547
0.0009575
0.0009603
0.0009631
0.0009659
0.0009687
0.0009715
0.0009743
0.0009772
0.0009799
0.0009827
0.0009856
0.0009883
0.0009911
0.000994
0.0009967
0.0009996
0.0010023
0.0010051
0.001008
0.0010107
0.0010136
0.0010163
0.0010191
0.001022
0.0010247
0.0010275
0.0010303
0.0010331
0.0010359
0.0010386
0.0010415
0.0010442
0.001047
0.0010498
0.0010526
0.0010554
0.0010581
0.0010609
0.0010637
0.0010665
0.0010692
0.001072
0.0010748
0.0010775
0.0010803
0.001083
0.0010858
0.0010886
0.0010913
0.001094
0.0010968
0.0010995
0.0011023
0.001105
0.0011078
0.0011105
0.0011132
0.0011159
0.0011187
0.0011214
0.001124
0.0011269
0.0011295
0.0011322
0.0011349
0.0011377
0.0011403
0.001143
0.0011457
0.0011484
0.001151
0.0011538
0.0011564
0.0011591
0.0011617
0.0011644
0.0011671
0.0011697
0.0011724
0.001175
0.0011776
0.0011803
0.0011829
0.0011856
0.0011881
0.0011908
0.0011933
0.001196
0.0011986
0.0012012
0.0012037
0.0012064
0.0012089
0.0012115
0.001214
0.0012167
0.0012191
0.0012218
0.0012242
0.0012269
0.0012293
0.0012319
0.0012344
0.0012369
0.0012394
0.0012419
0.0012444
0.0012469
0.0012494
0.0012519
0.0012543
0.0012568
0.0012592
0.0012617
0.0012642
0.0012666
0.001269
0.0012714
0.0012738
0.0012763
0.0012786
0.0012811
0.0012834
0.0012858
0.0012882
0.0012905
0.0012929
0.0012952
0.0012976
0.0012999
0.0013022
0.0013046
0.0013068
0.0013091
0.0013115
0.0013137
0.001316
0.0013182
0.0013205
0.0013228
0.001325
0.0013272
0.0013294
0.0013316
0.0013339
0.001336
0.0013383
0.0013403
0.0013426
0.0013447
0.0013469
0.001349
0.0013511
0.0013532
0.0013554
0.0013574
0.0013596
0.0013616
0.0013636
0.0013658
0.0013677
0.0013699
0.0013718
0.0013739
0.0013758
0.0013779
0.0013798
0.0013818
0.0013838
0.0013857
0.0013877
0.0013895
0.0013916
0.0013934
0.0013953
0.0013972
0.001399
0.001401
0.0014027
0.0014046
0.0014065
0.0014082
0.0014101
0.0014118
0.0014137
0.0014153
0.0014172
0.0014189
0.0014206
0.0014223
0.0014241
0.0014257
0.0014274
0.0014291
0.0014307
0.0014324
0.001434
0.0014356
0.0014372
0.0014388
0.0014404
0.001442
0.0014435
0.001445
0.0014466
0.001448
0.0014496
0.001451
0.0014526
0.0014539
0.0014554
0.0014569
0.0014582
0.0014597
0.001461
0.0014624
0.0014638
0.0014651
0.0014664
0.0014678
0.001469
0.0014704
0.0014716
0.0014728
0.0014741
0.0014754
0.0014765
0.0014777
0.0014789
0.0014801
0.0014812
0.0014824
0.0014835
0.0014845
0.0014857
0.0014868
0.0014878
0.0014888
0.0014899
0.0014908
0.0014919
0.0014929
0.0014938
0.0014947
0.0014957
0.0014966
0.0014975
0.0014984
0.0014993
0.0015
0.001501
0.0015017
0.0015026
0.0015033
0.0015041
0.0015048
0.0015056
0.0015063
0.0015069
0.0015077
0.0015083
0.001509
0.0015096
0.0015102
0.0015108
0.0015114
0.001512
0.0015124
0.0015131
0.0015135
0.001514
0.0015145
0.0015149
0.0015154
0.0015158
0.0015161
0.0015166
0.0015169
0.0015173
0.0015176
0.001518
0.0015182
0.0015184
0.0015188
0.001519
0.0015191
0.0015194
0.0015196
0.0015197
0.0015199
0.00152
0.0015201
0.0015202
0.0015203
0.0015203
1
0.0015204
0.0015203
0.0015203
1
0.0015202
0.0015201
0.00152
0.0015199
0.0015197
0.0015196
0.0015194
0.0015192
0.001519
0.0015187
0.0015185
0.0015181
0.0015179
0.0015176
0.0015172
0.0015169
0.0015165
0.0015161
0.0015156
0.0015153
0.0015147
0.0015143
0.0015138
0.0015133
0.0015127
0.0015122
0.0015115
0.001511
0.0015104
0.0015097
0.001509
0.0015084
0.0015077
0.0015069
0.0015062
0.0015054
0.0015047
0.0015038
0.001503
0.0015021
0.0015013
0.0015004
0.0014995
0.0014986
0.0014975
0.0014967
0.0014956
0.0014946
0.0014936
0.0014925
0.0014914
0.0014904
0.0014892
0.001488
0.0014869
0.0014858
0.0014845
0.0014833
0.001482
0.0014808
0.0014794
0.0014782
0.0014768
0.0014755
0.0014741
0.0014727
0.0014713
0.0014698
0.0014684
0.0014669
0.0014654
0.0014638
0.0014623
0.0014608
0.0014591
0.0014575
0.0014559
0.0014543
0.0014525
0.0014509
0.0014491
0.0014474
0.0014457
0.0014438
0.001442
0.0014402
0.0014384
0.0014365
0.0014346
0.0014326
0.0014308
0.0014287
0.0014268
0.0014248
0.0014228
0.0014207
0.0014187
0.0014165
0.0014145
0.0014123
0.0014101
0.001408
0.0014058
0.0014035
0.0014014
0.001399
0.0013968
0.0013944
0.0013922
0.0013897
0.0013874
0.0013851
0.0013825
0.0013802
0.0013777
0.0013752
0.0013727
0.0013702
0.0013677
0.001365
0.0013625
0.0013599
0.0013572
0.0013546
0.0013519
0.0013492
0.0013465
0.0013438
0.001341
0.0013382
0.0013354
0.0013326
0.0013297
0.0013269
0.0013239
0.0013211
0.0013181
0.0013152
0.0013122
0.0013092
0.0013061
0.0013032
0.0013001
0.0012969
0.0012939
0.0012908
0.0012876
0.0012845
0.0012812
0.0012781
0.0012748
0.0012716
0.0012683
0.001265
0.0012617
0.0012583
0.001255
0.0012516
0.0012483
0.0012448
0.0012413
0.0012379
0.0012345
0.0012309
0.0012274
0.0012238
0.0012203
0.0012168
0.0012131
0.0012095
0.0012058
0.0012022
0.0011985
0.0011948
0.001191
0.0011873
0.0011836
0.0011798
0.0011759
0.0011722
0.0011682
0.0011645
0.0011605
0.0011566
0.0011527
0.0011488
0.0011448
0.0011408
0.0011368
0.0011328
0.0011288
0.0011246
0.0011206
0.0011165
0.0011124
0.0011083
0.0011041
0.0010999
0.0010957
0.0010915
0.0010872
0.001083
0.0010788
0.0010744
0.0010702
0.0010658
0.0010614
0.0010571
0.0010527
0.0010484
0.0010439
0.0010394
0.001035
0.0010305
0.0010261
0.0010215
0.001017
0.0010124
0.0010079
0.0010033
0.0009987
0.0009941
0.0009894
0.0009848
0.0009801
0.0009755
0.0009707
0.000966
0.0009613
0.0009565
0.0009517
0.000947
0.0009421
0.0009373
0.0009325
0.0009276
0.0009228
0.0009179
0.0009129
0.000908
0.0009031
0.0008982
0.0008931
0.0008882
0.0008832
0.0008782
0.0008731
0.0008681
0.000863
0.0008579
0.0008528
0.0008477
0.0008426
0.0008375
0.0008323
0.0008271
0.0008219
0.0008167
0.0008115
0.0008063
0.000801
0.0007958
0.0007905
0.0007852
0.0007799
0.0007746
0.0007692
0.0007639
0.0007585
0.0007532
0.0007478
0.0007424
0.0007369
0.0007316
0.000726
0.0007207
0.0007151
0.0007097
0.0007042
0.0006987
0.0006931
0.0006877
0.0006821
0.0006765
0.0006709
0.0006654
0.0006598
0.0006542
0.0006485
0.0006429
0.0006373
0.0006316
0.000626
0.0006202
0.0006146
0.0006089
0.0006032
0.0005974
0.0005918
0.0005859
0.0005802
0.0005745
0.0005687
0.0005629
0.000557
0.0005513
0.0005455
0.0005396
0.0005338
0.0005279
0.0005221
0.0005162
0.0005104
0.0005044
0.0004986
0.0004926
0.0004868
0.0004808
0.0004749
0.0004689
0.000463
0.000457
0.0004511
0.000445
0.0004391
0.0004332
0.0004271
0.000421
0.0004151
0.0004091
0.000403
0.000397
0.0003909
0.0003849
0.0003788
0.0003728
0.0003667
0.0003605
0.0003545
0.0003485
0.0003423
0.0003362
0.00033
0.000324
0.0003178
0.0003117
0.0003056
0.0002994
0.0002933
0.0002871
0.000281
0.0002747
0.0002686
0.0002625
0.0002562
0.0002501
0.0002439
0.0002377
0.0002314
0.0002253
0.0002191
0.0002128
0.0002067
0.0002004
0.0001942
0.0001879
0.0001818
0.0001755
0.0001692
0.000163
0.0001568
0.0001505
0.0001443
0.000138
0.0001318
0.0001255
0.0001193
0.0001129
0.0001068
0.0001004
9.42e-05
8.79e-05
8.16e-05
7.54e-05
6.91e-05
6.28e-05
5.65e-05
5.03e-05
4.4e-05
3.77e-05
3.14e-05
2.51e-05
1.89e-05
1.25e-05
6.3e-06
0
-6.3e-06
-1.25e-05
-1.89e-05
-2.51e-05
-3.14e-05
-3.77e-05
-4.4e-05
-5.03e-05
-5.65e-05
-6.28e-05
-6.91e-05
-7.54e-05
-8.16e-05
-8.79e-05
-9.42e-05
-0.0001004
-0.0001068
-0.0001129
-0.0001193
-0.0001255
-0.0001318
-0.000138
-0.0001443
-0.0001505
-0.0001568
-0.000163
-0.0001692
-0.0001755
-0.0001818
-0.0001879
-0.0001942
-0.0002004
-0.0002067
-0.0002128
-0.0002191
-0.0002253
-0.0002314
-0.0002377
-0.0002439
-0.0002501
-0.0002562
-0.0002625
-0.0002686
-0.0002747
-0.000281
-0.0002871
-0.0002933
-0.0002994
-0.0003056
-0.0003117
-0.0003178
-0.000324
-0.00033
-0.0003362
-0.0003423
-0.0003485
-0.0003545
-0.0003605
-0.0003667
-0.0003728
-0.0003788
-0.0003849
-0.0003909
-0.000397
-0.000403
-0.0004091
-0.0004151
-0.000421
-0.0004271
-0.0004332
-0.0004391
-0.000445
-0.0004511
-0.000457
-0.000463
-0.0004689
-0.0004749
-0.0004808
-0.0004868
-0.0004926
-0.0004986
-0.0005044
-0.0005104
-0.0005162
-0.0005221
-0.0005279
-0.0005338
-0.0005396
-0.0005455
-0.0005513
-0.000557
-0.0005629
-0.0005687
-0.0005745
-0.0005802
-0.0005859
-0.0005918
-0.0005974
-0.0006032
-0.0006089
-0.0006146
-0.0006202
-0.000626
-0.0006316
-0.0006373
-0.0006429
-0.0006485
-0.0006542
-0.0006598
-0.0006654
-0.0006709
-0.0006765
-0.0006821
-0.0006877
-0.0006931
-0.0006987
-0.0007042
-0.0007097
-0.0007151
-0.0007207
-0.000726
-0.0007316
-0.0007369
-0.0007424
-0.0007478
-0.0007532
-0.0007585
-0.0007639
-0.0007692
-0.0007746
-0.0007799
-0.0007852
-0.0007905
-0.0007958
-0.000801
-0.0008063
-0.0008115
-0.0008167
-0.0008219
-0.0008271
-0.0008323
-0.0008375
-0.0008426
-0.0008477
-0.0008528
-0.0008579
-0.000863
-0.0008681
-0.0008731
-0.0008782
-0.0008832
-0.0008882
-0.0008931
-0.0008982
-0.0009031
-0.000908
-0.0009129
-0.0009179
-0.0009228
-0.0009276
-0.0009325
-0.0009373
-0.0009421
-0.000947
-0.0009517
-0.0009565
-0.0009613
-0.000966
-0.0009707
-0.0009755
-0.0009801
-0.0009848
-0.0009894
-0.0009941
-0.0009987
-0.0010033
-0.0010079
-0.0010124
-0.001017
-0.0010215
-0.0010261
-0.0010305
-0.001035
-0.0010394
-0.0010439
-0.0010484
-0.0010527
-0.0010571
-0.0010614
-0.0010658
-0.0010702
-0.0010744
-0.0010788
-0.001083
-0.0010872
-0.0010915
-0.0010957
-0.0010999
-0.0011041
-0.0011083
-0.0011124
-0.0011165
-0.0011206
-0.0011246
-0.0011288
-0.0011328
-0.0011368
-0.0011408
-0.0011448
-0.0011488
-0.0011527
-0.0011566
-0.0011605
-0.0011645
-0.0011682
-0.0011722
-0.0011759
-0.0011798
-0.0011836
-0.0011873
-0.001191
-0.0011948
-0.0011985
-0.0012022
-0.0012058
-0.0012095
-0.0012131
-0.0012168
-0.0012203
-0.0012238
-0.0012274
-0.0012309
-0.0012345
-0.0012379
-0.0012413
-0.0012448
-0.0012483
-0.0012516
-0.001255
-0.0012583
-0.0012617
-0.001265
-0.0012683
-0.0012716
-0.0012748
-0.0012781
-0.0012812
-0.0012845
-0.0012876
-0.0012908
-0.0012939
-0.0012969
-0.0013001
-0.0013032
-0.0013061
-0.0013092
-0.0013122
-0.0013152
-0.0013181
-0.0013211
-0.0013239
-0.0013269
-0.0013297
-0.0013326
-0.0013354
-0.0013382
-0.001341
-0.0013438
-0.0013465
-0.0013492
-0.0013519
-0.0013546
-0.0013572
-0.0013599
-0.0013625
-0.001365
-0.0013677
-0.0013702
-0.0013727
-0.0013752
-0.0013777
-0.0013802
-0.0013825
-0.0013851
-0.0013874
-0.0013897
-0.0013922
-0.0013944
-0.0013968
-0.001399
-0.0014014
-0.0014035
-0.0014058
-0.001408
-0.0014101
-0.0014123
-0.0014145
-0.0014165
-0.0014187
-0.0014207
-0.0014228
-0.0014248
-0.0014268
-0.0014287
-0.0014308
-0.0014326
-0.0014346
-0.0014365
-0.0014384
-0.0014402
-0.001442
-0.0014438
-0.0014457
-0.0014474
-0.0014491
-0.0014509
-0.0014525
-0.0014543
-0.0014559
-0.0014575
-0.0014591
-0.0014608
-0.0014623
-0.0014638
-0.0014654
-0.0014669
-0.0014684
-0.0014698
-0.0014713
-0.0014727
-0.0014741
-0.0014755
-0.0014768
-0.0014782
-0.0014794
-0.0014808
-0.001482
-0.0014833
-0.0014845
-0.0014858
-0.0014869
-0.001488
-0.0014892
-0.0014904
-0.0014914
-0.0014925
-0.0014936
-0.0014946
-0.0014956
-0.0014967
-0.0014975
-0.0014986
-0.0014995
-0.0015004
-0.0015013
-0.0015021
-0.001503
-0.0015038
-0.0015047
-0.0015054
-0.0015062
-0.0015069
-0.0015077
-0.0015084
-0.001509
-0.0015097
-0.0015104
-0.001511
-0.0015115
-0.0015122
-0.0015127
-0.0015133
-0.0015138
-0.0015143
-0.0015147
-0.0015153
-0.0015156
-0.0015161
-0.0015165
-0.0015169
-0.0015172
-0.0015176
-0.0015179
-0.0015181
-0.0015185
-0.0015187
-0.001519
-0.0015192
-0.0015194
-0.0015196
-0.0015197
-0.0015199
-0.00152
-0.0015201
-0.0015202
-0.0015203
-0.0015203
1
-0.0015204
-0.0015203
-0.0015203
1
-0.0015202
-0.0015201
-0.00152
-0.0015199
-0.0015197
-0.0015196
-0.0015194
-0.0015191
-0.001519
-0.0015188
-0.0015184
-0.0015182
-0.001518
-0.0015176
-0.0015173
-0.0015169
-0.0015166
-0.0015161
-0.0015158
-0.0015154
-0.0015149
-0.0015145
-0.001514
-0.0015135
-0.0015131
-0.0015124
-0.001512
-0.0015114
-0.0015108
-0.0015102
-0.0015096
-0.001509
-0.0015083
-0.0015077
-0.0015069
-0.0015063
-0.0015056
-0.0015048
-0.0015041
-0.0015033
-0.0015026
-0.0015017
-0.001501
-0.0015
-0.0014993
-0.0014984
-0.0014975
-0.0014966
-0.0014957
-0.0014947
-0.0014938
-0.0014929
-0.0014919
-0.0014908
-0.0014899
-0.0014888
-0.0014878
-0.0014868
-0.0014857
-0.0014845
-0.0014835
-0.0014824
-0.0014812
-0.0014801
-0.0014789
-0.0014777
-0.0014765
-0.0014754
-0.0014741
-0.0014728
-0.0014716
-0.0014704
-0.001469
-0.0014678
-0.0014664
-0.0014651
-0.0014638
-0.0014624
-0.001461
-0.0014597
-0.0014582
-0.0014569
-0.0014554
-0.0014539
-0.0014526
-0.001451
-0.0014496
-0.001448
-0.0014466
-0.001445
-0.0014435
-0.001442
-0.0014404
-0.0014388
-0.0014372
-0.0014356
-0.001434
-0.0014324
-0.0014307
-0.0014291
-0.0014274
-0.0014257
-0.0014241
-0.0014223
-0.0014206
-0.0014189
-0.0014172
-0.0014153
-0.0014137
-0.0014118
-0.0014101
-0.0014082
-0.0014065
-0.0014046
-0.0014027
-0.001401
-0.001399
-0.0013972
-0.0013953
-0.0013934
-0.0013916
-0.0013895
-0.0013877
-0.0013857
-0.0013838
-0.0013818
-0.0013798
-0.0013779
-0.0013758
-0.0013739
-0.0013718
-0.0013699
-0.0013677
-0.0013658
-0.0013636
-0.0013616
-0.0013596
-0.0013574
-0.0013554
-0.0013532
-0.0013511
-0.001349
-0.0013469
-0.0013447
-0.0013426
-0.0013403
-0.0013383
-0.001336
-0.0013339
-0.0013316
-0.0013294
-0.0013272
-0.001325
-0.0013228
-0.0013205
-0.0013182
-0.001316
-0.0013137
-0.0013115
-0.0013091
-0.0013068
-0.0013046
-0.0013022
-0.0012999
-0.0012976
-0.0012952
-0.0012929
-0.0012905
-0.0012882
-0.0012858
-0.0012834
-0.0012811
-0.0012786
-0.0012763
-0.0012738
-0.0012714
-0.001269
-0.0012666
-0.0012642
-0.0012617
-0.0012592
-0.0012568
-0.0012543
-0.0012519
-0.0012494
-0.0012469
-0.0012444
-0.0012419
-0.0012394
-0.0012369
-0.0012344
-0.0012319
-0.0012293
-0.0012269
-0.0012242
-0.0012218
-0.0012191
-0.0012167
-0.001214
-0.0012115
-0.0012089
-0.0012064
-0.0012037
-0.0012012
-0.0011986
-0.001196
-0.0011933
-0.0011908
-0.0011881
-0.0011856
-0.0011829
-0.0011803
-0.0011776
-0.001175
-0.0011724
-0.0011697
-0.0011671
-0.0011644
-0.0011617
-0.0011591
-0.0011564
-0.0011538
-0.001151
-0.0011484
-0.0011457
-0.001143
-0.0011403
-0.0011377
-0.0011349
-0.0011322
-0.0011295
-0.0011269
-0.001124
-0.0011214
-0.0011187
-0.0011159
-0.0011132
-0.0011105
-0.0011078
-0.001105
-0.0011023
-0.0010995
-0.0010968
-0.001094
-0.0010913
-0.0010886
-0.0010858
-0.001083
-0.0010803
-0.0010775
-0.0010748
-0.001072
-0.0010692
-0.0010665
-0.0010637
-0.0010609
-0.0010581
-0.0010554
-0.0010526
-0.0010498
-0.001047
-0.0010442
-0.0010415
-0.0010386
-0.0010359
-0.0010331
-0.0010303
-0.0010275
-0.0010247
-0.001022
-0.0010191
-0.0010163
-0.0010136
-0.0010107
-0.001008
-0.0010051
-0.0010023
-0.0009996
-0.0009967
-0.000994
-0.0009911
-0.0009883
-0.0009856
-0.0009827
-0.0009799
-0.0009772
-0.0009743
-0.0009715
-0.0009687
-0.0009659
-0.0009631
-0.0009603
-0.0009575
-0.0009547
-0.0009519
-0.0009491
-0.0009463
-0.0009434
-0.0009407
-0.0009379
-0.0009351
-0.0009323
-0.0009294
-0.0009267
-0.0009239
-0.0009211
-0.0009183
-0.0009155
-0.0009127
-0.0009099
-0.0009071
-0.0009043
-0.0009016
-0.0008987
-0.000896
-0.0008932
-0.0008903
-0.0008877
-0.0008848
-0.000882
-0.0008793
-0.0008765
-0.0008737
-0.0008709
-0.0008682
-0.0008654
-0.0008626
-0.0008599
-0.0008571
-0.0008543
-0.0008516
-0.0008488
-0.000846
-0.0008433
-0.0008406
-0.0008378
-0.000835
-0.0008323
-0.0008296
-0.0008268
-0.000824
-0.0008214
-0.0008186
-0.0008159
-0.0008131
-0.0008104
-0.0008077
-0.000805
-0.0008022
-0.0007996
-0.0007968
-0.0007941
-0.0007914
-0.0007887
-0.000786
-0.0007833
-0.0007806
-0.0007779
-0.0007752
-0.0007726
-0.0007698
-0.0007672
-0.0007645
-0.0007618
-0.0007592
-0.0007564
-0.0007539
-0.0007511
-0.0007485
-0.0007459
-0.0007432
-0.0007405
-0.0007379
-0.0007353
-0.0007326
-0.00073
-0.0007274
-0.0007248
-0.0007221
-0.0007195
-0.0007169
-0.0007143
-0.0007117
-0.0007091
-0.0007065
-0.0007038
-0.0007013
-0.0006988
-0.0006961
-0.0006936
-0.0006909
-0.0006884
-0.0006859
-0.0006833
-0.0006807
-0.0006782
-0.0006756
-0.0006731
-0.0006705
-0.0006681
-0.0006654
-0.000663
-0.0006604
-0.0006579
-0.0006554
-0.0006529
-0.0006504
-0.0006479
-0.0006454
-0.0006429
-0.0006404
-0.0006379
-0.0006355
-0.000633
-0.0006305
-0.000628
-0.0006256
-0.0006232
-0.0006207
-0.0006182
-0.0006158
-0.0006134
-0.0006109
-0.0006086
-0.0006061
-0.0006037
-0.0006013
-0.0005988
-0.0005965
-0.0005941
-0.0005917
-0.0005893
-0.0005869
-0.0005846
-0.0005822
-0.0005798
-0.0005775
-0.0005751
-0.0005728
-0.0005704
-0.0005681
-0.0005658
-0.0005634
-0.0005611
-0.0005588
-0.0005565
-0.0005541
-0.0005519
-0.0005496
-0.0005473
-0.000545
-0.0005427
-0.0005404
-0.0005382
-0.0005359
-0.0005337
-0.0005314
-0.0005291
-0.000527
-0.0005246
-0.0005225
-0.0005202
-0.000518
-0.0005158
-0.0005136
-0.0005114
-0.0005092
-0.000507
-0.0005048
-0.0005026
-0.0005005
-0.0004982
-0.0004962
-0.0004939
-0.0004918
-0.0004897
-0.0004875
-0.0004854
-0.0004833
-0.0004811
-0.000479
-0.0004769
-0.0004748
-0.0004727
-0.0004706
-0.0004686
-0.0004664
-0.0004643
-0.0004623
-0.0004602
-0.0004582
-0.0004561
-0.000454
-0.000452
-0.00045
-0.0004479
-0.000446
-0.0004439
-0.0004418
-0.0004399
-0.0004379
-0.0004358
-0.0004339
-0.0004319
-0.0004299
-0.000428
-0.000426
-0.000424
-0.000422
-0.0004201
-0.0004182
-0.0004162
-0.0004143
-0.0004124
-0.0004105
-0.0004085
-0.0004066
-0.0004047
-0.0004029
-0.0004009
-0.0003991
-0.0003971
-0.0003953
-0.0003935
-0.0003915
-0.0003898
-0.0003878
-0.0003861
-0.0003841
-0.0003824
-0.0003805
-0.0003787
-0.0003769
-0.0003751
-0.0003733
-0.0003715
-0.0003697
-0.0003679
-0.0003661
-0.0003644
-0.0003626
-0.0003608
-0.0003591
-0.0003573
-0.0003556
-0.0003539
-0.0003521
-0.0003504
-0.0003487
-0.0003469
-0.0003453
-0.0003435
-0.0003419
-0.0003401
-0.0003385
-0.0003368
-0.0003351
-0.0003335
-0.0003318
-0.0003301
-0.0003285
-0.0003269
-0.0003252
-0.0003236
-0.0003219
-0.0003203
-0.0003188
-0.0003171
-0.0003155
-0.0003139
-0.0003123
-0.0003108
-0.0003091
-0.0003076
-0.000306
-0.0003044
-0.0003029
-0.0003014
-0.0002998
-0.0002982
-0.0002968
-0.0002952
-0.0002936
-0.0002922
-0.0002906
-0.0002892
-0.0002876
-0.0002862
-0.0002846
-0.0002832
-0.0002817
-0.0002802
-0.0002788
-0.0002773
-0.0002758
-0.0002744
-0.000273
-0.0002715
-0.0002701
-0.0002687
-0.0002672
-0.0002659
-0.0002644
-0.000263
-0.0002616
-0.0002602
-0.0002589
-0.0002574
-0.0002561
-0.0002547
-0.0002534
-0.0002519
-0.0002507
-0.0002492
-0.000248
-0.0002466
-0.0002452
-0.000244
-0.0002426
-0.0002413
-0.00024
-0.0002387
-0.0002374
-0.0002361
-0.0002348
-0.0002335
-0.0002322
-0.000231
-0.0002297
-0.0002284
-0.0002272
-0.0002259
-0.0002247
-0.0002235
-0.0002222
-0.0002209
-0.0002198
-0.0002185
-0.0002173
-0.0002161
-0.0002149
-0.0002137
-0.0002125
-0.0002113
-0.0002102
-0.0002089
-0.0002078
-0.0002066
-0.0002054
-0.0002043
-0.0002032
-0.0002019
-0.0002009
-0.0001997
-0.0001985
-0.0001975
-0.0001963
-0.0001952
-0.0001941
