# Pulseq sequence file
# Created by MATLAB mr toolbox

[VERSION]
major 1
minor 2
revision 0

[DEFINITIONS]
FOV 0.256 0.256 0.005 
Name 109 112 114 97 103 101 

# Format of blocks:
#  #  D RF  GX  GY  GZ ADC
[BLOCKS]
  1  0  1   0   0   0  0
  2  1  0   0   0   0  0
  3  0  2   0   0   1  0
  4  0  0   2   3   4  0
  5  0  0   5   0   0  1
  6  0  0   6   7   8  0
  7  0  3   0   0   1  0
  8  0  0   2   9   4  0
  9  0  0   5   0   0  2
 10  0  0   6  10   8  0
 11  0  4   0   0   1  0
 12  0  0   2  11   4  0
 13  0  0   5   0   0  3
 14  0  0   6  12   8  0
 15  0  5   0   0   1  0
 16  0  0   2  13   4  0
 17  0  0   5   0   0  4
 18  0  0   6  14   8  0
 19  0  6   0   0   1  0
 20  0  0   2  15   4  0
 21  0  0   5   0   0  5
 22  0  0   6  16   8  0
 23  0  7   0   0   1  0
 24  0  0   2  17   4  0
 25  0  0   5   0   0  6
 26  0  0   6  18   8  0
 27  0  8   0   0   1  0
 28  0  0   2  19   4  0
 29  0  0   5   0   0  7
 30  0  0   6  20   8  0
 31  0  9   0   0   1  0
 32  0  0   2  21   4  0
 33  0  0   5   0   0  8
 34  0  0   6  22   8  0
 35  0 10   0   0   1  0
 36  0  0   2  23   4  0
 37  0  0   5   0   0  9
 38  0  0   6  24   8  0
 39  0 11   0   0   1  0
 40  0  0   2  25   4  0
 41  0  0   5   0   0 10
 42  0  0   6  26   8  0
 43  0  7   0   0   1  0
 44  0  0   2  27   4  0
 45  0  0   5   0   0  6
 46  0  0   6  28   8  0
 47  0 12   0   0   1  0
 48  0  0   2  29   4  0
 49  0  0   5   0   0 11
 50  0  0   6  30   8  0
 51  0 13   0   0   1  0
 52  0  0   2  31   4  0
 53  0  0   5   0   0 12
 54  0  0   6  32   8  0
 55  0 14   0   0   1  0
 56  0  0   2  33   4  0
 57  0  0   5   0   0 13
 58  0  0   6  34   8  0
 59  0 15   0   0   1  0
 60  0  0   2  35   4  0
 61  0  0   5   0   0 14
 62  0  0   6  36   8  0
 63  0  2   0   0   1  0
 64  0  0   2  37   4  0
 65  0  0   5   0   0  1
 66  0  0   6  38   8  0
 67  0 16   0   0   1  0
 68  0  0   2  39   4  0
 69  0  0   5   0   0 15
 70  0  0   6  40   8  0
 71  0 17   0   0   1  0
 72  0  0   2  38   4  0
 73  0  0   5   0   0 16
 74  0  0   6  37   8  0
 75  0 14   0   0   1  0
 76  0  0   2  36   4  0
 77  0  0   5   0   0 13
 78  0  0   6  35   8  0
 79  0 18   0   0   1  0
 80  0  0   2  34   4  0
 81  0  0   5   0   0 17
 82  0  0   6  33   8  0
 83  0  6   0   0   1  0
 84  0  0   2  32   4  0
 85  0  0   5   0   0  5
 86  0  0   6  31   8  0
 87  0 19   0   0   1  0
 88  0  0   2  30   4  0
 89  0  0   5   0   0 18
 90  0  0   6  29   8  0
 91  0 20   0   0   1  0
 92  0  0   2  28   4  0
 93  0  0   5   0   0 19
 94  0  0   6  27   8  0
 95  0 10   0   0   1  0
 96  0  0   2  26   4  0
 97  0  0   5   0   0  9
 98  0  0   6  25   8  0
 99  0 21   0   0   1  0
100  0  0   2  24   4  0
101  0  0   5   0   0 20
102  0  0   6  23   8  0
103  0 11   0   0   1  0
104  0  0   2  22   4  0
105  0  0   5   0   0 10
106  0  0   6  21   8  0
107  0 19   0   0   1  0
108  0  0   2  20   4  0
109  0  0   5   0   0 18
110  0  0   6  19   8  0
111  0 22   0   0   1  0
112  0  0   2  18   4  0
113  0  0   5   0   0 21
114  0  0   6  17   8  0
115  0  5   0   0   1  0
116  0  0   2  16   4  0
117  0  0   5   0   0  4
118  0  0   6  15   8  0
119  0 23   0   0   1  0
120  0  0   2  14   4  0
121  0  0   5   0   0 22
122  0  0   6  13   8  0
123  0 15   0   0   1  0
124  0  0   2  12   4  0
125  0  0   5   0   0 14
126  0  0   6  11   8  0
127  0 16   0   0   1  0
128  0  0   2  10   4  0
129  0  0   5   0   0 15
130  0  0   6   9   8  0
131  0  1   0   0   0  0
132  1  0   0   0   0  0
133  0 24   0   0   1  0
134  0  0   2   3   4  0
135  0  0   5   0   0 23
136  0  0   6   7   8  0
137  0 25   0   0   1  0
138  0  0   2   9   4  0
139  0  0   5   0   0 24
140  0  0   6  10   8  0
141  0 26   0   0   1  0
142  0  0   2  11   4  0
143  0  0   5   0   0 25
144  0  0   6  12   8  0
145  0 27   0   0   1  0
146  0  0   2  13   4  0
147  0  0   5   0   0 26
148  0  0   6  14   8  0
149  0 28   0   0   1  0
150  0  0   2  15   4  0
151  0  0   5   0   0 27
152  0  0   6  16   8  0
153  0 29   0   0   1  0
154  0  0   2  17   4  0
155  0  0   5   0   0 28
156  0  0   6  18   8  0
157  0 30   0   0   1  0
158  0  0   2  19   4  0
159  0  0   5   0   0 29
160  0  0   6  20   8  0
161  0 31   0   0   1  0
162  0  0   2  21   4  0
163  0  0   5   0   0 30
164  0  0   6  22   8  0
165  0 31   0   0   1  0
166  0  0   2  23   4  0
167  0  0   5   0   0 30
168  0  0   6  24   8  0
169  0 30   0   0   1  0
170  0  0   2  25   4  0
171  0  0   5   0   0 29
172  0  0   6  26   8  0
173  0 29   0   0   1  0
174  0  0   2  27   4  0
175  0  0   5   0   0 28
176  0  0   6  28   8  0
177  0 28   0   0   1  0
178  0  0   2  29   4  0
179  0  0   5   0   0 27
180  0  0   6  30   8  0
181  0 27   0   0   1  0
182  0  0   2  31   4  0
183  0  0   5   0   0 26
184  0  0   6  32   8  0
185  0 26   0   0   1  0
186  0  0   2  33   4  0
187  0  0   5   0   0 25
188  0  0   6  34   8  0
189  0 25   0   0   1  0
190  0  0   2  35   4  0
191  0  0   5   0   0 24
192  0  0   6  36   8  0
193  0 24   0   0   1  0
194  0  0   2  37   4  0
195  0  0   5   0   0 23
196  0  0   6  38   8  0
197  0 32   0   0   1  0
198  0  0   2  39   4  0
199  0  0   5   0   0 31
200  0  0   6  40   8  0
201  0 33   0   0   1  0
202  0  0   2  38   4  0
203  0  0   5   0   0 32
204  0  0   6  37   8  0
205  0 26   0   0   1  0
206  0  0   2  36   4  0
207  0  0   5   0   0 25
208  0  0   6  35   8  0
209  0 34   0   0   1  0
210  0  0   2  34   4  0
211  0  0   5   0   0 33
212  0  0   6  33   8  0
213  0 35   0   0   1  0
214  0  0   2  32   4  0
215  0  0   5   0   0 34
216  0  0   6  31   8  0
217  0 36   0   0   1  0
218  0  0   2  30   4  0
219  0  0   5   0   0 35
220  0  0   6  29   8  0
221  0 37   0   0   1  0
222  0  0   2  28   4  0
223  0  0   5   0   0 36
224  0  0   6  27   8  0
225  0 31   0   0   1  0
226  0  0   2  26   4  0
227  0  0   5   0   0 30
228  0  0   6  25   8  0
229  0 38   0   0   1  0
230  0  0   2  24   4  0
231  0  0   5   0   0 37
232  0  0   6  23   8  0
233  0 39   0   0   1  0
234  0  0   2  22   4  0
235  0  0   5   0   0 38
236  0  0   6  21   8  0
237  0 36   0   0   1  0
238  0  0   2  20   4  0
239  0  0   5   0   0 35
240  0  0   6  19   8  0
241  0 40   0   0   1  0
242  0  0   2  18   4  0
243  0  0   5   0   0 39
244  0  0   6  17   8  0
245  0 27   0   0   1  0
246  0  0   2  16   4  0
247  0  0   5   0   0 26
248  0  0   6  15   8  0
249  0 41   0   0   1  0
250  0  0   2  14   4  0
251  0  0   5   0   0 40
252  0  0   6  13   8  0
253  0 42   0   0   1  0
254  0  0   2  12   4  0
255  0  0   5   0   0 41
256  0  0   6  11   8  0
257  0 32   0   0   1  0
258  0  0   2  10   4  0
259  0  0   5   0   0 31
260  0  0   6   9   8  0
261  0  1   0   0   0  0
262  1  0   0   0   0  0
263  0 43   0   0   1  0
264  0  0   2   3   4  0
265  0  0   5   0   0 42
266  0  0   6   7   8  0
267  0 44   0   0   1  0
268  0  0   2   9   4  0
269  0  0   5   0   0 43
270  0  0   6  10   8  0
271  0 45   0   0   1  0
272  0  0   2  11   4  0
273  0  0   5   0   0 44
274  0  0   6  12   8  0
275  0 46   0   0   1  0
276  0  0   2  13   4  0
277  0  0   5   0   0 45
278  0  0   6  14   8  0
279  0 47   0   0   1  0
280  0  0   2  15   4  0
281  0  0   5   0   0 46
282  0  0   6  16   8  0
283  0 48   0   0   1  0
284  0  0   2  17   4  0
285  0  0   5   0   0 47
286  0  0   6  18   8  0
287  0 49   0   0   1  0
288  0  0   2  19   4  0
289  0  0   5   0   0 48
290  0  0   6  20   8  0
291  0 50   0   0   1  0
292  0  0   2  21   4  0
293  0  0   5   0   0 49
294  0  0   6  22   8  0
295  0 51   0   0   1  0
296  0  0   2  23   4  0
297  0  0   5   0   0 50
298  0  0   6  24   8  0
299  0 52   0   0   1  0
300  0  0   2  25   4  0
301  0  0   5   0   0 51
302  0  0   6  26   8  0
303  0 48   0   0   1  0
304  0  0   2  27   4  0
305  0  0   5   0   0 47
306  0  0   6  28   8  0
307  0 53   0   0   1  0
308  0  0   2  29   4  0
309  0  0   5   0   0 52
310  0  0   6  30   8  0
311  0 54   0   0   1  0
312  0  0   2  31   4  0
313  0  0   5   0   0 53
314  0  0   6  32   8  0
315  0 55   0   0   1  0
316  0  0   2  33   4  0
317  0  0   5   0   0 54
318  0  0   6  34   8  0
319  0 56   0   0   1  0
320  0  0   2  35   4  0
321  0  0   5   0   0 55
322  0  0   6  36   8  0
323  0 43   0   0   1  0
324  0  0   2  37   4  0
325  0  0   5   0   0 42
326  0  0   6  38   8  0
327  0 43   0   0   1  0
328  0  0   2  39   4  0
329  0  0   5   0   0 42
330  0  0   6  40   8  0
331  0 56   0   0   1  0
332  0  0   2  38   4  0
333  0  0   5   0   0 55
334  0  0   6  37   8  0
335  0 55   0   0   1  0
336  0  0   2  36   4  0
337  0  0   5   0   0 54
338  0  0   6  35   8  0
339  0 54   0   0   1  0
340  0  0   2  34   4  0
341  0  0   5   0   0 53
342  0  0   6  33   8  0
343  0 53   0   0   1  0
344  0  0   2  32   4  0
345  0  0   5   0   0 52
346  0  0   6  31   8  0
347  0 48   0   0   1  0
348  0  0   2  30   4  0
349  0  0   5   0   0 47
350  0  0   6  29   8  0
351  0 52   0   0   1  0
352  0  0   2  28   4  0
353  0  0   5   0   0 51
354  0  0   6  27   8  0
355  0 51   0   0   1  0
356  0  0   2  26   4  0
357  0  0   5   0   0 50
358  0  0   6  25   8  0
359  0 50   0   0   1  0
360  0  0   2  24   4  0
361  0  0   5   0   0 49
362  0  0   6  23   8  0
363  0 49   0   0   1  0
364  0  0   2  22   4  0
365  0  0   5   0   0 48
366  0  0   6  21   8  0
367  0 48   0   0   1  0
368  0  0   2  20   4  0
369  0  0   5   0   0 47
370  0  0   6  19   8  0
371  0 47   0   0   1  0
372  0  0   2  18   4  0
373  0  0   5   0   0 46
374  0  0   6  17   8  0
375  0 46   0   0   1  0
376  0  0   2  16   4  0
377  0  0   5   0   0 45
378  0  0   6  15   8  0
379  0 45   0   0   1  0
380  0  0   2  14   4  0
381  0  0   5   0   0 44
382  0  0   6  13   8  0
383  0 44   0   0   1  0
384  0  0   2  12   4  0
385  0  0   5   0   0 43
386  0  0   6  11   8  0
387  0 43   0   0   1  0
388  0  0   2  10   4  0
389  0  0   5   0   0 42
390  0  0   6   9   8  0

# Format of RF events:
[RF]
1           50 1 2 100 0 0
2      334.967 3 4 100 -1333.33 0
3      334.967 3 4 100 -1333.33 2.04204
4      334.967 3 4 100 -1333.33 6.12611
5      334.967 3 4 100 -1333.33 5.96903
6      334.967 3 4 100 -1333.33 1.5708
7      334.967 3 4 100 -1333.33 5.49779
8      334.967 3 4 100 -1333.33 5.18363
9      334.967 3 4 100 -1333.33 0.628319
10      334.967 3 4 100 -1333.33 4.39823
11      334.967 3 4 100 -1333.33 3.92699
12      334.967 3 4 100 -1333.33 2.82743
13      334.967 3 4 100 -1333.33 2.19911
14      334.967 3 4 100 -1333.33 3.61283
15      334.967 3 4 100 -1333.33 0.785398
16      334.967 3 4 100 -1333.33 1.25664
17      334.967 3 4 100 -1333.33 4.55531
18      334.967 3 4 100 -1333.33 4.71239
19      334.967 3 4 100 -1333.33 0.471239
20      334.967 3 4 100 -1333.33 1.41372
21      334.967 3 4 100 -1333.33 3.14159
22      334.967 3 4 100 -1333.33 5.34071
23      334.967 3 4 100 -1333.33 2.35619
24      334.967 3 4 100 0 3.76991
25      334.967 3 4 100 0 2.04204
26      334.967 3 4 100 0 2.35619
27      334.967 3 4 100 0 4.71239
28      334.967 3 4 100 0 2.82743
29      334.967 3 4 100 0 2.98451
30      334.967 3 4 100 0 5.18363
31      334.967 3 4 100 0 3.14159
32      334.967 3 4 100 0 1.25664
33      334.967 3 4 100 0 0.785398
34      334.967 3 4 100 0 5.96903
35      334.967 3 4 100 0 5.34071
36      334.967 3 4 100 0 0.471239
37      334.967 3 4 100 0 3.92699
38      334.967 3 4 100 0 4.39823
39      334.967 3 4 100 0 1.41372
40      334.967 3 4 100 0 1.5708
41      334.967 3 4 100 0 3.61283
42      334.967 3 4 100 0 4.55531
43      334.967 3 4 100 1333.33 0
44      334.967 3 4 100 1333.33 0.785398
45      334.967 3 4 100 1333.33 3.61283
46      334.967 3 4 100 1333.33 2.19911
47      334.967 3 4 100 1333.33 2.82743
48      334.967 3 4 100 1333.33 5.49779
49      334.967 3 4 100 1333.33 3.92699
50      334.967 3 4 100 1333.33 4.39823
51      334.967 3 4 100 1333.33 0.628319
52      334.967 3 4 100 1333.33 5.18363
53      334.967 3 4 100 1333.33 1.5708
54      334.967 3 4 100 1333.33 5.96903
55      334.967 3 4 100 1333.33 6.12611
56      334.967 3 4 100 1333.33 2.04204

# Format of arbitrary gradients:
# id amplitude shape_id delay
# ..      Hz/m     ....    us
[GRADIENTS]
6       263158 5 0
8       941176 6 0

# Format of trapezoid gradients:
# id amplitude rise flat fall delay
# ..      Hz/m   us   us   us    us
[TRAP]
 1       266667  50 3000  50  50
 2     -77726.4  20  960  20   0
 3     -63131.3  10  980  10   0
 4      -437276  70  860  70   0
 5       390625  70  320  70   0
 7      63131.3  10  980  10   0
 9     -59185.6  10  980  10   0
10      59185.6  10  980  10   0
11     -55239.9  10  980  10   0
12      55239.9  10  980  10   0
13     -51294.2  10  980  10   0
14      51294.2  10  980  10   0
15     -47348.5  10  980  10   0
16      47348.5  10  980  10   0
17     -43402.8  10  980  10   0
18      43402.8  10  980  10   0
19     -39457.1  10  980  10   0
20      39457.1  10  980  10   0
21     -35511.4  10  980  10   0
22      35511.4  10  980  10   0
23     -31565.7  10  980  10   0
24      31565.7  10  980  10   0
25     -27619.9  10  980  10   0
26      27619.9  10  980  10   0
27     -23674.2  10  980  10   0
28      23674.2  10  980  10   0
29     -19728.5  10  980  10   0
30      19728.5  10  980  10   0
31     -15782.8  10  980  10   0
32      15782.8  10  980  10   0
33     -11837.1  10  980  10   0
34      11837.1  10  980  10   0
35     -7891.41  10  980  10   0
36      7891.41  10  980  10   0
37     -3945.71  10  980  10   0
38      3945.71  10  980  10   0
39            0   0 1000   0   0
40           -0   0 1000   0   0

# Format of ADC events:
# id num dwell delay freq phase
# ..  ..    ns    us   Hz   rad
[ADC]
1 32 10000 70 -1333.33 0
2 32 10000 70 -1333.33 2.04204
3 32 10000 70 -1333.33 6.12611
4 32 10000 70 -1333.33 5.96903
5 32 10000 70 -1333.33 1.5708
6 32 10000 70 -1333.33 5.49779
7 32 10000 70 -1333.33 5.18363
8 32 10000 70 -1333.33 0.628319
9 32 10000 70 -1333.33 4.39823
10 32 10000 70 -1333.33 3.92699
11 32 10000 70 -1333.33 2.82743
12 32 10000 70 -1333.33 2.19911
13 32 10000 70 -1333.33 3.61283
14 32 10000 70 -1333.33 0.785398
15 32 10000 70 -1333.33 1.25664
16 32 10000 70 -1333.33 4.55531
17 32 10000 70 -1333.33 4.71239
18 32 10000 70 -1333.33 0.471239
19 32 10000 70 -1333.33 1.41372
20 32 10000 70 -1333.33 3.14159
21 32 10000 70 -1333.33 5.34071
22 32 10000 70 -1333.33 2.35619
23 32 10000 70 0 3.76991
24 32 10000 70 0 2.04204
25 32 10000 70 0 2.35619
26 32 10000 70 0 4.71239
27 32 10000 70 0 2.82743
28 32 10000 70 0 2.98451
29 32 10000 70 0 5.18363
30 32 10000 70 0 3.14159
31 32 10000 70 0 1.25664
32 32 10000 70 0 0.785398
33 32 10000 70 0 5.96903
34 32 10000 70 0 5.34071
35 32 10000 70 0 0.471239
36 32 10000 70 0 3.92699
37 32 10000 70 0 4.39823
38 32 10000 70 0 1.41372
39 32 10000 70 0 1.5708
40 32 10000 70 0 3.61283
41 32 10000 70 0 4.55531
42 32 10000 70 1333.33 0
43 32 10000 70 1333.33 0.785398
44 32 10000 70 1333.33 3.61283
45 32 10000 70 1333.33 2.19911
46 32 10000 70 1333.33 2.82743
47 32 10000 70 1333.33 5.49779
48 32 10000 70 1333.33 3.92699
49 32 10000 70 1333.33 4.39823
50 32 10000 70 1333.33 0.628319
51 32 10000 70 1333.33 5.18363
52 32 10000 70 1333.33 1.5708
53 32 10000 70 1333.33 5.96903
54 32 10000 70 1333.33 6.12611
55 32 10000 70 1333.33 2.04204

# Format of delays:
# id delay (us)
[DELAYS]
1 100

# Sequence Shapes
[SHAPES]

shape_id 1
num_samples 10120
0
0
98
1
0
0
9997
-1
0
0
17

shape_id 2
num_samples 10120
0
0
10118

shape_id 3
num_samples 3120
0
0
98
0.000106738
0.000106882
0.000107029
0.000107177
0.000107328
0.000107481
0.000107636
0.000107793
0.000107952
0.000108113
0.000108277
0.000108442
0.00010861
0.00010878
0.000108952
0.000109126
0.000109303
0.000109481
0.000109662
0.000109845
0.00011003
0.000110217
0.000110406
0.000110598
0.000110792
0.000110987
0.000111185
0.000111386
0.000111588
0.000111793
0.000112
0.000112209
0.00011242
0.000112633
0.000112848
0.000113066
0.000113286
0.000113508
0.000113732
0.000113958
0.000114187
0.000114418
0.00011465
0.000114885
0.000115122
0.000115362
0.000115603
0.000115847
0.000116092
0.00011634
0.00011659
0.000116842
0.000117096
0.000117352
0.000117611
0.000117871
0.000118134
0.000118399
0.000118665
0.000118934
0.000119205
0.000119478
0.000119753
0.00012003
0.000120309
0.00012059
0.000120874
0.000121159
0.000121446
0.000121735
0.000122026
0.00012232
0.000122615
0.000122912
0.000123211
0.000123512
0.000123815
0.00012412
0.000124426
0.000124735
0.000125045
0.000125358
0.000125672
0.000125988
0.000126306
0.000126626
0.000126948
0.000127271
0.000127596
0.000127923
0.000128252
0.000128583
0.000128915
0.000129249
0.000129584
0.000129922
0.000130261
0.000130601
0.000130944
0.000131288
0.000131633
0.000131981
0.000132329
0.00013268
0.000133032
0.000133385
0.00013374
0.000134096
0.000134454
0.000134814
0.000135174
0.000135537
0.0001359
0.000136265
0.000136632
0.000137
0.000137369
0.000137739
0.000138111
0.000138484
0.000138858
0.000139234
0.00013961
0.000139988
0.000140367
0.000140747
0.000141129
0.000141511
0.000141895
0.000142279
0.000142665
0.000143052
0.000143439
0.000143828
0.000144217
0.000144608
0.000144999
0.000145392
0.000145785
0.000146179
0.000146573
0.000146969
0.000147365
0.000147762
0.00014816
0.000148558
0.000148957
0.000149357
0.000149757
0.000150158
0.000150559
0.000150961
0.000151364
0.000151767
0.00015217
0.000152574
0.000152978
0.000153382
0.000153787
0.000154192
0.000154597
0.000155003
0.000155408
0.000155814
0.000156221
0.000156627
0.000157033
0.000157439
0.000157846
0.000158252
0.000158659
0.000159065
0.000159471
0.000159877
0.000160283
0.000160689
0.000161094
0.0001615
0.000161905
0.000162309
0.000162714
0.000163118
0.000163521
0.000163924
0.000164327
0.000164729
0.00016513
0.000165531
0.000165932
0.000166331
0.00016673
0.000167129
0.000167526
0.000167923
0.000168319
0.000168714
0.000169108
0.000169501
0.000169893
0.000170285
0.000170675
0.000171064
0.000171452
0.000171839
0.000172225
0.000172609
0.000172992
0.000173374
0.000173755
0.000174134
0.000174512
0.000174888
0.000175263
0.000175636
0.000176008
0.000176378
0.000176747
0.000177113
0.000177479
0.000177842
0.000178203
0.000178563
0.000178921
0.000179277
0.000179631
0.000179983
0.000180333
0.000180681
0.000181027
0.00018137
0.000181712
0.000182051
0.000182388
0.000182722
0.000183054
0.000183384
0.000183711
0.000184036
0.000184359
0.000184678
0.000184996
0.00018531
0.000185622
0.000185931
0.000186237
0.000186541
0.000186841
0.000187139
0.000187434
0.000187726
0.000188014
0.0001883
0.000188582
0.000188862
0.000189138
0.000189411
0.00018968
0.000189947
0.000190209
0.000190469
0.000190725
0.000190977
0.000191226
0.000191471
0.000191713
0.000191951
0.000192185
0.000192415
0.000192642
0.000192865
0.000193084
0.000193298
0.000193509
0.000193716
0.000193919
0.000194117
0.000194311
0.000194501
0.000194687
0.000194869
0.000195046
0.000195219
0.000195387
0.000195551
0.00019571
0.000195864
0.000196014
0.00019616
0.0001963
0.000196436
0.000196567
0.000196693
0.000196814
0.00019693
0.000197041
0.000197147
0.000197248
0.000197344
0.000197435
0.00019752
0.0001976
0.000197675
0.000197744
0.000197808
0.000197867
0.00019792
0.000197967
0.000198009
0.000198045
0.000198076
0.0001981
0.000198119
0.000198132
0.000198132
2
0.000198125
0.000198108
0.000198085
0.000198056
0.00019802
0.000197978
0.00019793
0.000197876
0.000197815
0.000197748
0.000197674
0.000197594
0.000197507
0.000197414
0.000197314
0.000197207
0.000197093
0.000196973
0.000196845
0.000196711
0.00019657
0.000196422
0.000196267
0.000196104
0.000195935
0.000195758
0.000195574
0.000195383
0.000195184
0.000194979
0.000194765
0.000194544
0.000194316
0.00019408
0.000193837
0.000193586
0.000193327
0.000193061
0.000192787
0.000192504
0.000192215
0.000191917
0.000191611
0.000191297
0.000190975
0.000190645
0.000190307
0.000189961
0.000189607
0.000189244
0.000188873
0.000188493
0.000188106
0.00018771
0.000187305
0.000186892
0.00018647
0.000186039
0.0001856
0.000185153
0.000184696
0.000184231
0.000183757
0.000183274
0.000182782
0.000182281
0.000181771
0.000181252
0.000180724
0.000180187
0.000179641
0.000179085
0.000178521
0.000177947
0.000177363
0.000176771
0.000176168
0.000175557
0.000174936
0.000174305
0.000173665
0.000173015
0.000172356
0.000171687
0.000171008
0.000170319
0.000169621
0.000168913
0.000168195
0.000167466
0.000166728
0.00016598
0.000165222
0.000164454
0.000163676
0.000162887
0.000162089
0.00016128
0.000160461
0.000159631
0.000158792
0.000157942
0.000157081
0.00015621
0.000155329
0.000154437
0.000153534
0.000152621
0.000151697
0.000150763
0.000149818
0.000148862
0.000147895
0.000146918
0.000145929
0.00014493
0.00014392
0.000142899
0.000141868
0.000140825
0.000139771
0.000138706
0.00013763
0.000136542
0.000135444
0.000134335
0.000133214
0.000132082
0.000130938
0.000129784
0.000128618
0.000127441
0.000126252
0.000125052
0.00012384
0.000122617
0.000121383
0.000120136
0.000118879
0.000117609
0.000116328
0.000115036
0.000113732
0.000112416
0.000111088
0.000109748
0.000108397
0.000107034
0.000105659
0.000104272
0.000102874
0.000101463
0.00010004
9.8606e-05
9.71595e-05
9.5701e-05
9.42305e-05
9.2748e-05
9.12533e-05
8.97466e-05
8.82277e-05
8.66967e-05
8.51536e-05
8.35982e-05
8.20307e-05
8.04509e-05
7.88589e-05
7.72546e-05
7.5638e-05
7.40091e-05
7.23679e-05
7.07143e-05
6.90484e-05
6.73701e-05
6.56794e-05
6.39763e-05
6.22608e-05
6.05328e-05
5.87923e-05
5.70394e-05
5.5274e-05
5.3496e-05
5.17056e-05
4.99026e-05
4.8087e-05
4.62589e-05
4.44181e-05
4.25648e-05
4.06989e-05
3.88203e-05
3.69292e-05
3.50253e-05
3.31088e-05
3.11796e-05
2.92378e-05
2.72832e-05
2.5316e-05
2.3336e-05
2.13433e-05
1.93379e-05
1.73197e-05
1.52888e-05
1.32451e-05
1.11887e-05
9.11943e-06
7.03742e-06
4.94262e-06
2.83502e-06
7.14622e-07
-1.41859e-06
-3.56461e-06
-5.72345e-06
-7.89512e-06
-1.00796e-05
-1.22769e-05
-1.44871e-05
-1.67101e-05
-1.8946e-05
-2.11947e-05
-2.34562e-05
-2.57306e-05
-2.80178e-05
-3.03179e-05
-3.26309e-05
-3.49567e-05
-3.72953e-05
-3.96468e-05
-4.20112e-05
-4.43884e-05
-4.67785e-05
-4.91814e-05
-5.15971e-05
-5.40257e-05
-5.64672e-05
-5.89215e-05
-6.13886e-05
-6.38685e-05
-6.63613e-05
-6.88668e-05
-7.13852e-05
-7.39164e-05
-7.64604e-05
-7.90172e-05
-8.15868e-05
-8.41692e-05
-8.67643e-05
-8.93722e-05
-9.19929e-05
-9.46263e-05
-9.72725e-05
-9.99314e-05
-0.000102603
-0.000105287
-0.000107984
-0.000110694
-0.000113416
-0.000116151
-0.000118899
-0.000121659
-0.000124432
-0.000127218
-0.000130016
-0.000132827
-0.00013565
-0.000138486
-0.000141334
-0.000144195
-0.000147069
-0.000149955
-0.000152853
-0.000155764
-0.000158687
-0.000161623
-0.000164571
-0.000167531
-0.000170504
-0.000173489
-0.000176487
-0.000179496
-0.000182518
-0.000185553
-0.000188599
-0.000191658
-0.000194729
-0.000197812
-0.000200907
-0.000204014
-0.000207134
-0.000210265
-0.000213409
-0.000216564
-0.000219732
-0.000222911
-0.000226103
-0.000229306
-0.000232521
-0.000235748
-0.000238987
-0.000242237
-0.0002455
-0.000248774
-0.00025206
-0.000255357
-0.000258666
-0.000261987
-0.000265319
-0.000268663
-0.000272019
-0.000275385
-0.000278764
-0.000282153
-0.000285554
-0.000288967
-0.00029239
-0.000295825
-0.000299272
-0.000302729
-0.000306198
-0.000309677
-0.000313168
-0.00031667
-0.000320182
-0.000323706
-0.000327241
-0.000330786
-0.000334343
-0.00033791
-0.000341488
-0.000345076
-0.000348676
-0.000352286
-0.000355906
-0.000359538
-0.000363179
-0.000366831
-0.000370494
-0.000374167
-0.00037785
-0.000381543
-0.000385247
-0.000388961
-0.000392685
-0.000396419
-0.000400163
-0.000403917
-0.000407682
-0.000411456
-0.000415239
-0.000419033
-0.000422837
-0.00042665
-0.000430473
-0.000434305
-0.000438147
-0.000441998
-0.000445859
-0.000449729
-0.000453609
-0.000457498
-0.000461396
-0.000465303
-0.000469219
-0.000473145
-0.000477079
-0.000481023
-0.000484975
-0.000488936
-0.000492906
-0.000496885
-0.000500872
-0.000504868
-0.000508872
-0.000512885
-0.000516907
-0.000520936
-0.000524974
-0.000529021
-0.000533075
-0.000537138
-0.000541208
-0.000545287
-0.000549373
-0.000553468
-0.00055757
-0.00056168
-0.000565798
-0.000569923
-0.000574056
-0.000578196
-0.000582344
-0.000586499
-0.000590661
-0.000594831
-0.000599008
-0.000603192
-0.000607383
-0.00061158
-0.000615785
-0.000619997
-0.000624215
-0.00062844
-0.000632671
-0.000636909
-0.000641154
-0.000645405
-0.000649662
-0.000653925
-0.000658195
-0.000662471
-0.000666753
-0.00067104
-0.000675334
-0.000679634
-0.000683939
-0.00068825
-0.000692566
-0.000696888
-0.000701215
-0.000705548
-0.000709886
-0.000714229
-0.000718578
-0.000722931
-0.00072729
-0.000731653
-0.000736021
-0.000740394
-0.000744771
-0.000749154
-0.00075354
-0.000757931
-0.000762327
-0.000766726
-0.00077113
0.000775538
0.00077995
0.000784366
0.000788786
0.000793209
0.000797636
0.000802067
0.000806502
0.000810939
0.000815381
0.000819825
0.000824273
0.000828723
0.000833177
0.000837634
0.000842094
0.000846556
0.000851021
0.000855489
0.000859959
0.000864431
0.000868906
0.000873383
0.000877863
0.000882344
0.000886827
0.000891313
0.0008958
0.000900288
0.000904779
0.000909271
0.000913764
0.000918259
0.000922755
0.000927252
0.000931751
0.00093625
0.00094075
0.000945251
0.000949753
0.000954255
0.000958758
0.000963262
0.000967766
0.00097227
0.000976774
0.000981278
0.000985783
0.000990287
0.000994791
0.000999294
0.0010038
0.0010083
0.0010128
0.0010173
0.00102181
0.00102631
0.0010308
0.0010353
0.0010398
0.00104429
0.00104879
0.00105328
0.00105777
0.00106226
0.00106675
0.00107124
0.00107572
0.0010802
0.00108468
0.00108916
0.00109364
0.00109811
0.00110258
0.00110705
0.00111151
0.00111598
0.00112044
0.00112489
0.00112935
0.0011338
0.00113824
0.00114269
0.00114713
0.00115156
0.001156
0.00116042
0.00116485
0.00116927
0.00117369
0.0011781
0.00118251
0.00118691
0.00119131
0.00119571
0.0012001
0.00120448
0.00120887
0.00121324
0.00121761
0.00122198
0.00122634
0.00123069
0.00123504
0.00123938
0.00124372
0.00124805
0.00125238
0.0012567
0.00126102
0.00126532
0.00126962
0.00127392
0.00127821
0.00128249
0.00128677
0.00129103
0.00129529
0.00129955
0.0013038
0.00130804
0.00131227
0.00131649
0.00132071
0.00132492
0.00132912
0.00133332
0.0013375
0.00134168
0.00134585
0.00135002
0.00135417
0.00135831
0.00136245
0.00136658
0.0013707
0.00137481
0.00137891
0.001383
0.00138708
0.00139116
0.00139522
0.00139928
0.00140332
0.00140736
0.00141138
0.0014154
0.0014194
0.0014234
0.00142738
0.00143136
0.00143532
0.00143928
0.00144322
0.00144715
0.00145107
0.00145498
0.00145888
0.00146277
0.00146665
0.00147052
0.00147437
0.00147821
0.00148204
0.00148586
0.00148967
0.00149347
0.00149725
0.00150102
0.00150478
0.00150853
0.00151226
0.00151598
0.00151969
0.00152339
0.00152707
0.00153074
0.0015344
0.00153805
0.00154168
0.0015453
0.0015489
0.00155249
0.00155607
0.00155963
0.00156318
0.00156672
0.00157024
0.00157374
0.00157724
0.00158072
0.00158418
0.00158763
0.00159106
0.00159448
0.00159789
0.00160128
0.00160466
0.00160802
0.00161136
0.00161469
0.001618
0.0016213
0.00162459
0.00162785
0.0016311
0.00163434
0.00163756
0.00164076
0.00164395
0.00164712
0.00165028
0.00165341
0.00165654
0.00165964
0.00166273
0.0016658
0.00166885
0.00167189
0.00167491
0.00167791
0.0016809
0.00168387
0.00168682
0.00168975
0.00169267
0.00169557
0.00169845
0.00170131
0.00170415
0.00170698
0.00170978
0.00171257
0.00171534
0.0017181
0.00172083
0.00172354
0.00172624
0.00172892
0.00173158
0.00173422
0.00173684
0.00173944
0.00174202
0.00174458
0.00174712
0.00174965
0.00175215
0.00175463
0.0017571
0.00175954
0.00176197
0.00176437
0.00176676
0.00176912
0.00177146
0.00177379
0.00177609
0.00177837
0.00178063
0.00178288
0.0017851
0.0017873
0.00178947
0.00179163
0.00179377
0.00179588
0.00179798
0.00180005
0.0018021
0.00180413
0.00180614
0.00180812
0.00181009
0.00181203
0.00181395
0.00181585
0.00181773
0.00181958
0.00182142
0.00182323
0.00182502
0.00182678
0.00182852
0.00183025
0.00183194
0.00183362
0.00183527
0.0018369
0.00183851
0.00184009
0.00184165
0.00184319
0.00184471
0.0018462
0.00184767
0.00184911
0.00185053
0.00185193
0.00185331
0.00185466
0.00185598
0.00185729
0.00185857
0.00185982
0.00186105
0.00186226
0.00186345
0.0018646
0.00186574
0.00186685
0.00186794
0.001869
0.00187004
0.00187105
0.00187204
0.001873
0.00187394
0.00187486
0.00187575
0.00187661
0.00187745
0.00187827
0.00187906
0.00187982
0.00188056
0.00188128
0.00188197
0.00188263
0.00188327
0.00188389
0.00188447
0.00188504
0.00188557
0.00188609
0.00188657
0.00188703
0.00188747
0.00188788
0.00188826
0.00188862
0.00188895
0.00188925
0.00188953
0.00188979
0.00189001
0.00189021
0.00189039
0.00189054
0.00189066
0.00189076
0.00189083
0.00189087
0.00189089
0.00189089
0
0.00189084
0.00189078
0.00189069
0.00189057
0.00189043
0.00189026
0.00189007
0.00188985
0.0018896
0.00188932
0.00188902
0.00188869
0.00188833
0.00188795
0.00188754
0.0018871
0.00188663
0.00188614
0.00188562
0.00188508
0.0018845
0.0018839
0.00188328
0.00188262
0.00188194
0.00188123
0.00188049
0.00187973
0.00187894
0.00187812
0.00187727
0.0018764
0.0018755
0.00187457
0.00187362
0.00187263
0.00187162
0.00187058
0.00186952
0.00186842
0.0018673
0.00186615
0.00186498
0.00186377
0.00186254
0.00186128
0.00186
0.00185868
0.00185734
0.00185597
0.00185457
0.00185315
0.00185169
0.00185021
0.0018487
0.00184717
0.0018456
0.00184401
0.00184239
0.00184075
0.00183907
0.00183737
0.00183564
0.00183388
0.00183209
0.00183028
0.00182844
0.00182657
0.00182467
0.00182274
0.00182079
0.00181881
0.0018168
0.00181476
0.0018127
0.00181061
0.00180849
0.00180634
0.00180417
0.00180196
0.00179973
0.00179747
0.00179519
0.00179287
0.00179053
0.00178816
0.00178577
0.00178334
0.00178089
0.00177841
0.0017759
0.00177337
0.0017708
0.00176821
0.0017656
0.00176295
0.00176028
0.00175758
0.00175485
0.00175209
0.00174931
0.0017465
0.00174366
0.0017408
0.0017379
0.00173498
0.00173204
0.00172906
0.00172606
0.00172303
0.00171998
0.00171689
0.00171378
0.00171064
0.00170748
0.00170429
0.00170107
0.00169782
0.00169455
0.00169125
0.00168792
0.00168457
0.00168119
0.00167778
0.00167435
0.00167089
0.0016674
0.00166388
0.00166034
0.00165678
0.00165318
0.00164956
