# Pulseq sequence file
# Created by MATLAB mr toolbox

[VERSION]
major 1
minor 3
revision 1

[DEFINITIONS]
FOV 0.256 0.256 0.005 
Name mprage 
TotalDuration 0.56922 

# Format of blocks:
#  #  D RF  GX  GY  GZ ADC EXT
[BLOCKS]
  1  0  1   0   0   0  0  0
  2  1  0   0   0   0  0  0
  3  0  2   0   0   1  0  0
  4  0  0   2   3   4  0  0
  5  0  0   5   0   0  1  0
  6  0  0   6   7   8  0  0
  7  0  3   0   0   1  0  0
  8  0  0   2   9   4  0  0
  9  0  0   5   0   0  2  0
 10  0  0   6  10   8  0  0
 11  0  4   0   0   1  0  0
 12  0  0   2  11   4  0  0
 13  0  0   5   0   0  3  0
 14  0  0   6  12   8  0  0
 15  0  5   0   0   1  0  0
 16  0  0   2  13   4  0  0
 17  0  0   5   0   0  4  0
 18  0  0   6  14   8  0  0
 19  0  6   0   0   1  0  0
 20  0  0   2  15   4  0  0
 21  0  0   5   0   0  5  0
 22  0  0   6  16   8  0  0
 23  0  7   0   0   1  0  0
 24  0  0   2  17   4  0  0
 25  0  0   5   0   0  6  0
 26  0  0   6  18   8  0  0
 27  0  8   0   0   1  0  0
 28  0  0   2  19   4  0  0
 29  0  0   5   0   0  7  0
 30  0  0   6  20   8  0  0
 31  0  9   0   0   1  0  0
 32  0  0   2  21   4  0  0
 33  0  0   5   0   0  8  0
 34  0  0   6  22   8  0  0
 35  0 10   0   0   1  0  0
 36  0  0   2  23   4  0  0
 37  0  0   5   0   0  9  0
 38  0  0   6  24   8  0  0
 39  0 11   0   0   1  0  0
 40  0  0   2  25   4  0  0
 41  0  0   5   0   0 10  0
 42  0  0   6  26   8  0  0
 43  0  7   0   0   1  0  0
 44  0  0   2  27   4  0  0
 45  0  0   5   0   0  6  0
 46  0  0   6  28   8  0  0
 47  0 12   0   0   1  0  0
 48  0  0   2  29   4  0  0
 49  0  0   5   0   0 11  0
 50  0  0   6  30   8  0  0
 51  0 13   0   0   1  0  0
 52  0  0   2  31   4  0  0
 53  0  0   5   0   0 12  0
 54  0  0   6  32   8  0  0
 55  0 14   0   0   1  0  0
 56  0  0   2  33   4  0  0
 57  0  0   5   0   0 13  0
 58  0  0   6  34   8  0  0
 59  0 15   0   0   1  0  0
 60  0  0   2  35   4  0  0
 61  0  0   5   0   0 14  0
 62  0  0   6  36   8  0  0
 63  0  2   0   0   1  0  0
 64  0  0   2  37   4  0  0
 65  0  0   5   0   0  1  0
 66  0  0   6  38   8  0  0
 67  0 16   0   0   1  0  0
 68  0  0   2  39   4  0  0
 69  0  0   5   0   0 15  0
 70  0  0   6  40   8  0  0
 71  0 17   0   0   1  0  0
 72  0  0   2  38   4  0  0
 73  0  0   5   0   0 16  0
 74  0  0   6  37   8  0  0
 75  0 14   0   0   1  0  0
 76  0  0   2  36   4  0  0
 77  0  0   5   0   0 13  0
 78  0  0   6  35   8  0  0
 79  0 18   0   0   1  0  0
 80  0  0   2  34   4  0  0
 81  0  0   5   0   0 17  0
 82  0  0   6  33   8  0  0
 83  0  6   0   0   1  0  0
 84  0  0   2  32   4  0  0
 85  0  0   5   0   0  5  0
 86  0  0   6  31   8  0  0
 87  0 19   0   0   1  0  0
 88  0  0   2  30   4  0  0
 89  0  0   5   0   0 18  0
 90  0  0   6  29   8  0  0
 91  0 20   0   0   1  0  0
 92  0  0   2  28   4  0  0
 93  0  0   5   0   0 19  0
 94  0  0   6  27   8  0  0
 95  0 10   0   0   1  0  0
 96  0  0   2  26   4  0  0
 97  0  0   5   0   0  9  0
 98  0  0   6  25   8  0  0
 99  0 21   0   0   1  0  0
100  0  0   2  24   4  0  0
101  0  0   5   0   0 20  0
102  0  0   6  23   8  0  0
103  0 11   0   0   1  0  0
104  0  0   2  22   4  0  0
105  0  0   5   0   0 10  0
106  0  0   6  21   8  0  0
107  0 19   0   0   1  0  0
108  0  0   2  20   4  0  0
109  0  0   5   0   0 18  0
110  0  0   6  19   8  0  0
111  0 22   0   0   1  0  0
112  0  0   2  18   4  0  0
113  0  0   5   0   0 21  0
114  0  0   6  17   8  0  0
115  0  5   0   0   1  0  0
116  0  0   2  16   4  0  0
117  0  0   5   0   0  4  0
118  0  0   6  15   8  0  0
119  0 23   0   0   1  0  0
120  0  0   2  14   4  0  0
121  0  0   5   0   0 22  0
122  0  0   6  13   8  0  0
123  0 15   0   0   1  0  0
124  0  0   2  12   4  0  0
125  0  0   5   0   0 14  0
126  0  0   6  11   8  0  0
127  0 16   0   0   1  0  0
128  0  0   2  10   4  0  0
129  0  0   5   0   0 15  0
130  0  0   6   9   8  0  0
131  0  1   0   0   0  0  0
132  1  0   0   0   0  0  0
133  0 24   0   0   1  0  0
134  0  0   2   3   4  0  0
135  0  0   5   0   0 23  0
136  0  0   6   7   8  0  0
137  0 25   0   0   1  0  0
138  0  0   2   9   4  0  0
139  0  0   5   0   0 24  0
140  0  0   6  10   8  0  0
141  0 26   0   0   1  0  0
142  0  0   2  11   4  0  0
143  0  0   5   0   0 25  0
144  0  0   6  12   8  0  0
145  0 27   0   0   1  0  0
146  0  0   2  13   4  0  0
147  0  0   5   0   0 26  0
148  0  0   6  14   8  0  0
149  0 28   0   0   1  0  0
150  0  0   2  15   4  0  0
151  0  0   5   0   0 27  0
152  0  0   6  16   8  0  0
153  0 29   0   0   1  0  0
154  0  0   2  17   4  0  0
155  0  0   5   0   0 28  0
156  0  0   6  18   8  0  0
157  0 30   0   0   1  0  0
158  0  0   2  19   4  0  0
159  0  0   5   0   0 29  0
160  0  0   6  20   8  0  0
161  0 31   0   0   1  0  0
162  0  0   2  21   4  0  0
163  0  0   5   0   0 30  0
164  0  0   6  22   8  0  0
165  0 31   0   0   1  0  0
166  0  0   2  23   4  0  0
167  0  0   5   0   0 30  0
168  0  0   6  24   8  0  0
169  0 30   0   0   1  0  0
170  0  0   2  25   4  0  0
171  0  0   5   0   0 29  0
172  0  0   6  26   8  0  0
173  0 29   0   0   1  0  0
174  0  0   2  27   4  0  0
175  0  0   5   0   0 28  0
176  0  0   6  28   8  0  0
177  0 28   0   0   1  0  0
178  0  0   2  29   4  0  0
179  0  0   5   0   0 27  0
180  0  0   6  30   8  0  0
181  0 27   0   0   1  0  0
182  0  0   2  31   4  0  0
183  0  0   5   0   0 26  0
184  0  0   6  32   8  0  0
185  0 26   0   0   1  0  0
186  0  0   2  33   4  0  0
187  0  0   5   0   0 25  0
188  0  0   6  34   8  0  0
189  0 25   0   0   1  0  0
190  0  0   2  35   4  0  0
191  0  0   5   0   0 24  0
192  0  0   6  36   8  0  0
193  0 24   0   0   1  0  0
194  0  0   2  37   4  0  0
195  0  0   5   0   0 23  0
196  0  0   6  38   8  0  0
197  0 32   0   0   1  0  0
198  0  0   2  39   4  0  0
199  0  0   5   0   0 31  0
200  0  0   6  40   8  0  0
201  0 33   0   0   1  0  0
202  0  0   2  38   4  0  0
203  0  0   5   0   0 32  0
204  0  0   6  37   8  0  0
205  0 26   0   0   1  0  0
206  0  0   2  36   4  0  0
207  0  0   5   0   0 25  0
208  0  0   6  35   8  0  0
209  0 34   0   0   1  0  0
210  0  0   2  34   4  0  0
211  0  0   5   0   0 33  0
212  0  0   6  33   8  0  0
213  0 35   0   0   1  0  0
214  0  0   2  32   4  0  0
215  0  0   5   0   0 34  0
216  0  0   6  31   8  0  0
217  0 36   0   0   1  0  0
218  0  0   2  30   4  0  0
219  0  0   5   0   0 35  0
220  0  0   6  29   8  0  0
221  0 37   0   0   1  0  0
222  0  0   2  28   4  0  0
223  0  0   5   0   0 36  0
224  0  0   6  27   8  0  0
225  0 31   0   0   1  0  0
226  0  0   2  26   4  0  0
227  0  0   5   0   0 30  0
228  0  0   6  25   8  0  0
229  0 38   0   0   1  0  0
230  0  0   2  24   4  0  0
231  0  0   5   0   0 37  0
232  0  0   6  23   8  0  0
233  0 39   0   0   1  0  0
234  0  0   2  22   4  0  0
235  0  0   5   0   0 38  0
236  0  0   6  21   8  0  0
237  0 36   0   0   1  0  0
238  0  0   2  20   4  0  0
239  0  0   5   0   0 35  0
240  0  0   6  19   8  0  0
241  0 40   0   0   1  0  0
242  0  0   2  18   4  0  0
243  0  0   5   0   0 39  0
244  0  0   6  17   8  0  0
245  0 27   0   0   1  0  0
246  0  0   2  16   4  0  0
247  0  0   5   0   0 26  0
248  0  0   6  15   8  0  0
249  0 41   0   0   1  0  0
250  0  0   2  14   4  0  0
251  0  0   5   0   0 40  0
252  0  0   6  13   8  0  0
253  0 42   0   0   1  0  0
254  0  0   2  12   4  0  0
255  0  0   5   0   0 41  0
256  0  0   6  11   8  0  0
257  0 32   0   0   1  0  0
258  0  0   2  10   4  0  0
259  0  0   5   0   0 31  0
260  0  0   6   9   8  0  0
261  0  1   0   0   0  0  0
262  1  0   0   0   0  0  0
263  0 43   0   0   1  0  0
264  0  0   2   3   4  0  0
265  0  0   5   0   0 42  0
266  0  0   6   7   8  0  0
267  0 44   0   0   1  0  0
268  0  0   2   9   4  0  0
269  0  0   5   0   0 43  0
270  0  0   6  10   8  0  0
271  0 45   0   0   1  0  0
272  0  0   2  11   4  0  0
273  0  0   5   0   0 44  0
274  0  0   6  12   8  0  0
275  0 46   0   0   1  0  0
276  0  0   2  13   4  0  0
277  0  0   5   0   0 45  0
278  0  0   6  14   8  0  0
279  0 47   0   0   1  0  0
280  0  0   2  15   4  0  0
281  0  0   5   0   0 46  0
282  0  0   6  16   8  0  0
283  0 48   0   0   1  0  0
284  0  0   2  17   4  0  0
285  0  0   5   0   0 47  0
286  0  0   6  18   8  0  0
287  0 49   0   0   1  0  0
288  0  0   2  19   4  0  0
289  0  0   5   0   0 48  0
290  0  0   6  20   8  0  0
291  0 50   0   0   1  0  0
292  0  0   2  21   4  0  0
293  0  0   5   0   0 49  0
294  0  0   6  22   8  0  0
295  0 51   0   0   1  0  0
296  0  0   2  23   4  0  0
297  0  0   5   0   0 50  0
298  0  0   6  24   8  0  0
299  0 52   0   0   1  0  0
300  0  0   2  25   4  0  0
301  0  0   5   0   0 51  0
302  0  0   6  26   8  0  0
303  0 48   0   0   1  0  0
304  0  0   2  27   4  0  0
305  0  0   5   0   0 47  0
306  0  0   6  28   8  0  0
307  0 53   0   0   1  0  0
308  0  0   2  29   4  0  0
309  0  0   5   0   0 52  0
310  0  0   6  30   8  0  0
311  0 54   0   0   1  0  0
312  0  0   2  31   4  0  0
313  0  0   5   0   0 53  0
314  0  0   6  32   8  0  0
315  0 55   0   0   1  0  0
316  0  0   2  33   4  0  0
317  0  0   5   0   0 54  0
318  0  0   6  34   8  0  0
319  0 56   0   0   1  0  0
320  0  0   2  35   4  0  0
321  0  0   5   0   0 55  0
322  0  0   6  36   8  0  0
323  0 43   0   0   1  0  0
324  0  0   2  37   4  0  0
325  0  0   5   0   0 42  0
326  0  0   6  38   8  0  0
327  0 43   0   0   1  0  0
328  0  0   2  39   4  0  0
329  0  0   5   0   0 42  0
330  0  0   6  40   8  0  0
331  0 56   0   0   1  0  0
332  0  0   2  38   4  0  0
333  0  0   5   0   0 55  0
334  0  0   6  37   8  0  0
335  0 55   0   0   1  0  0
336  0  0   2  36   4  0  0
337  0  0   5   0   0 54  0
338  0  0   6  35   8  0  0
339  0 54   0   0   1  0  0
340  0  0   2  34   4  0  0
341  0  0   5   0   0 53  0
342  0  0   6  33   8  0  0
343  0 53   0   0   1  0  0
344  0  0   2  32   4  0  0
345  0  0   5   0   0 52  0
346  0  0   6  31   8  0  0
347  0 48   0   0   1  0  0
348  0  0   2  30   4  0  0
349  0  0   5   0   0 47  0
[RF]
1           50 1 2 100 0 0
2      334.967 3 4 100 -1333.33 0
3      334.967 3 4 100 -1333.33 2.04204
4      334.967 3 4 100 -1333.33 6.12611
5      334.967 3 4 100 -1333.33 5.96903
6      334.967 3 4 100 -1333.33 1.5708
7      334.967 3 4 100 -1333.33 5.49779
8      334.967 3 4 100 -1333.33 5.18363
9      334.967 3 4 100 -1333.33 0.628319
10      334.967 3 4 100 -1333.33 4.39823
11      334.967 3 4 100 -1333.33 3.92699
12      334.967 3 4 100 -1333.33 2.82743
13      334.967 3 4 100 -1333.33 2.19911
14      334.967 3 4 100 -1333.33 3.61283
15      334.967 3 4 100 -1333.33 0.785398
16      334.967 3 4 100 -1333.33 1.25664
17      334.967 3 4 100 -1333.33 4.55531
18      334.967 3 4 100 -1333.33 4.71239
19      334.967 3 4 100 -1333.33 0.471239
20      334.967 3 4 100 -1333.33 1.41372
21      334.967 3 4 100 -1333.33 3.14159
22      334.967 3 4 100 -1333.33 5.34071
23      334.967 3 4 100 -1333.33 2.35619
24      334.967 3 4 100 0 3.76991
25      334.967 3 4 100 0 2.04204
26      334.967 3 4 100 0 2.35619
27      334.967 3 4 100 0 4.71239
28      334.967 3 4 100 0 2.82743
29      334.967 3 4 100 0 2.98451
30      334.967 3 4 100 0 5.18363
31      334.967 3 4 100 0 3.14159
32      334.967 3 4 100 0 1.25664
33      334.967 3 4 100 0 0.785398
34      334.967 3 4 100 0 5.96903
35      334.967 3 4 100 0 5.34071
36      334.967 3 4 100 0 0.471239
37      334.967 3 4 100 0 3.92699
38      334.967 3 4 100 0 4.39823
39      334.967 3 4 100 0 1.41372
40      334.967 3 4 100 0 1.5708
41      334.967 3 4 100 0 3.61283
42      334.967 3 4 100 0 4.55531
43      334.967 3 4 100 1333.33 0
44      334.967 3 4 100 1333.33 0.785398
45      334.967 3 4 100 1333.33 3.61283
46      334.967 3 4 100 1333.33 2.19911
47      334.967 3 4 100 1333.33 2.82743
48      334.967 3 4 100 1333.33 5.49779
49      334.967 3 4 100 1333.33 3.92699
50      334.967 3 4 100 1333.33 4.39823
51      334.967 3 4 100 1333.33 0.628319
52      334.967 3 4 100 1333.33 5.18363
53      334.967 3 4 100 1333.33 1.5708
54      334.967 3 4 100 1333.33 5.96903
55      334.967 3 4 100 1333.33 6.12611
56      334.967 3 4 100 1333.33 2.04204

# Format of arbitrary gradients:
# id amplitude shape_id delay
# ..      Hz/m     ....    us
[GRADIENTS]
6       263158 5 0
8       941176 6 0

# Format of trapezoid gradients:
# id amplitude rise flat fall delay
# ..      Hz/m   us   us   us    us
[TRAP]
 1       266667  50 3000  50  50
 2     -77726.4  20  960  20   0
 3     -63131.3  10  980  10   0
 4      -437276  70  860  70   0
 5       390625  70  320  70   0
 7      63131.3  10  980  10   0
 9     -59185.6  10  980  10   0
10      59185.6  10  980  10   0
11     -55239.9  10  980  10   0
12      55239.9  10  980  10   0
13     -51294.2  10  980  10   0
14      51294.2  10  980  10   0
15     -47348.5  10  980  10   0
16      47348.5  10  980  10   0
17     -43402.8  10  980  10   0
18      43402.8  10  980  10   0
19     -39457.1  10  980  10   0
20      39457.1  10  980  10   0
21     -35511.4  10  980  10   0
22      35511.4  10  980  10   0
23     -31565.7  10  980  10   0
24      31565.7  10  980  10   0
25     -27619.9  10  980  10   0
26      27619.9  10  980  10   0
27     -23674.2  10  980  10   0
28      23674.2  10  980  10   0
29     -19728.5  10  980  10   0
30      19728.5  10  980  10   0
31     -15782.8  10  980  10   0
32      15782.8  10  980  10   0
33     -11837.1  10  980  10   0
34      11837.1  10  980  10   0
35     -7891.41  10  980  10   0
36      7891.41  10  980  10   0
37     -3945.71  10  980  10   0
38      3945.71  10  980  10   0
39            0  10  980  10   0
40           -0  10  980  10   0

# Format of ADC events:
# id num dwell delay freq phase
# ..  ..    ns    us   Hz   rad
[ADC]
1 32 10000 70 -1333.33 0
2 32 10000 70 -1333.33 2.04204
3 32 10000 70 -1333.33 6.12611
4 32 10000 70 -1333.33 5.96903
5 32 10000 70 -1333.33 1.5708
6 32 10000 70 -1333.33 5.49779
7 32 10000 70 -1333.33 5.18363
8 32 10000 70 -1333.33 0.628319
9 32 10000 70 -1333.33 4.39823
10 32 10000 70 -1333.33 3.92699
11 32 10000 70 -1333.33 2.82743
12 32 10000 70 -1333.33 2.19911
13 32 10000 70 -1333.33 3.61283
14 32 10000 70 -1333.33 0.785398
15 32 10000 70 -1333.33 1.25664
16 32 10000 70 -1333.33 4.55531
17 32 10000 70 -1333.33 4.71239
18 32 10000 70 -1333.33 0.471239
19 32 10000 70 -1333.33 1.41372
20 32 10000 70 -1333.33 3.14159
21 32 10000 70 -1333.33 5.34071
22 32 10000 70 -1333.33 2.35619
23 32 10000 70 0 3.76991
24 32 10000 70 0 2.04204
25 32 10000 70 0 2.35619
26 32 10000 70 0 4.71239
27 32 10000 70 0 2.82743
28 32 10000 70 0 2.98451
29 32 10000 70 0 5.18363
30 32 10000 70 0 3.14159
31 32 10000 70 0 1.25664
32 32 10000 70 0 0.785398
33 32 10000 70 0 5.96903
34 32 10000 70 0 5.34071
35 32 10000 70 0 0.471239
36 32 10000 70 0 3.92699
37 32 10000 70 0 4.39823
38 32 10000 70 0 1.41372
39 32 10000 70 0 1.5708
40 32 10000 70 0 3.61283
41 32 10000 70 0 4.55531
42 32 10000 70 1333.33 0
43 32 10000 70 1333.33 0.785398
44 32 10000 70 1333.33 3.61283
45 32 10000 70 1333.33 2.19911
46 32 10000 70 1333.33 2.82743
47 32 10000 70 1333.33 5.49779
48 32 10000 70 1333.33 3.92699
49 32 10000 70 1333.33 4.39823
50 32 10000 70 1333.33 0.628319
51 32 10000 70 1333.33 5.18363
52 32 10000 70 1333.33 1.5708
53 32 10000 70 1333.33 5.96903
54 32 10000 70 1333.33 6.12611
55 32 10000 70 1333.33 2.04204

# Format of delays:
# id delay (us)
[DELAYS]
1 100

# Sequence Shapes
[SHAPES]

shape_id 1
num_samples 10020
1
0
0
9997
-1
0
0
17

shape_id 2
num_samples 10020
0
0
10018

shape_id 3
num_samples 3020
0.0001067
0.0001069
0.000107
0.0001072
0.0001074
0.0001074
0
0.0001077
0.0001078
0.0001079
0.0001081
0.0001083
0.0001084
0.0001087
0.0001087
0
0.000109
0.0001091
0.0001093
0.0001095
0.0001097
0.0001098
0.00011
0.0001103
0.0001104
0.0001106
0.0001107
0.000111
0.0001112
0.0001114
0.0001116
0.0001118
0.000112
0.0001122
0.0001124
0.0001126
0.0001129
0.0001131
0.0001132
0.0001136
0.0001137
0.0001139
0.0001142
0.0001145
0.0001146
0.0001149
0.0001151
0.0001154
0.0001156
0.0001158
0.0001161
0.0001164
0.0001165
0.0001169
0.0001171
0.0001173
0.0001176
0.0001179
0.0001182
0.0001183
0.0001187
0.0001189
0.0001193
0.0001194
0.0001198
0.00012
0.0001203
0.0001206
0.0001209
0.0001211
0.0001215
0.0001217
0.0001221
0.0001223
0.0001226
0.0001229
0.0001232
0.0001235
0.0001238
0.0001242
0.0001244
0.0001247
0.0001251
0.0001253
0.0001257
0.000126
0.0001263
0.0001266
0.000127
0.0001272
0.0001276
0.000128
0.0001282
0.0001286
0.0001289
0.0001293
0.0001295
0.00013
0.0001302
0.0001306
0.000131
0.0001313
0.0001316
0.000132
0.0001323
0.0001327
0.000133
0.0001334
0.0001337
0.0001341
0.0001345
0.0001348
0.0001352
0.0001355
0.0001359
0.0001363
0.0001366
0.000137
0.0001374
0.0001377
0.0001381
0.0001385
0.0001389
0.0001392
0.0001396
0.00014
0.0001404
0.0001407
0.0001411
0.0001416
0.0001418
0.0001423
0.0001427
0.000143
0.0001435
0.0001438
0.0001442
0.0001446
0.000145
0.0001454
0.0001458
0.0001462
0.0001466
0.0001469
0.0001474
0.0001478
0.0001481
0.0001486
0.0001489
0.0001494
0.0001497
0.0001502
0.0001506
0.0001509
0.0001514
0.0001518
0.0001521
0.0001526
0.000153
0.0001534
0.0001537
0.0001542
0.0001546
0.000155
0.0001554
0.0001559
0.0001562
0.0001566
0.000157
0.0001575
0.0001578
0.0001583
0.0001586
0.0001591
0.0001595
0.0001599
0.0001602
0.0001607
0.0001611
0.0001615
0.0001619
0.0001623
0.0001627
0.0001632
0.0001635
0.0001639
0.0001643
0.0001648
0.0001651
0.0001655
0.000166
0.0001663
0.0001667
0.0001671
0.0001676
0.0001679
0.0001683
0.0001687
0.0001691
0.0001695
0.0001699
0.0001703
0.0001707
0.0001711
0.0001714
0.0001718
0.0001723
0.0001726
0.000173
0.0001733
0.0001738
0.0001741
0.0001745
0.0001749
0.0001753
0.0001756
0.000176
0.0001764
0.0001768
0.0001771
0.0001775
0.0001778
0.0001782
0.0001786
0.0001789
0.0001793
0.0001796
0.00018
0.0001803
0.0001807
0.000181
0.0001814
0.0001817
0.000182
0.0001824
0.0001828
0.000183
0.0001834
0.0001837
0.000184
0.0001844
0.0001847
0.000185
0.0001853
0.0001856
0.0001859
0.0001863
0.0001865
0.0001869
0.0001871
0.0001874
0.0001878
0.000188
0.0001883
0.0001886
0.0001888
0.0001892
0.0001894
0.0001896
0.00019
0.0001902
0.0001905
0.0001907
0.000191
0.0001912
0.0001915
0.0001917
0.0001919
0.0001922
0.0001924
0.0001927
0.0001928
0.0001931
0.0001933
0.0001935
0.0001937
0.000194
0.0001941
0.0001943
0.0001945
0.0001947
0.0001949
0.000195
0.0001952
0.0001954
0.0001956
0.0001957
0.0001958
0.000196
0.0001962
0.0001963
0.0001964
0.0001966
0.0001967
0.0001968
0.0001969
0.0001971
0.0001971
0
0.0001973
0.0001973
0
0.0001975
0.0001975
0
0.0001976
0.0001977
0.0001977
0
0.0001978
0.0001979
0.0001979
0
0.000198
0.000198
1
0.0001981
0.0001981
2
0.0001982
0.0001981
0.0001982
0.0001981
0.0001981
1
0.000198
0.000198
2
0.0001978
0.0001978
1
0.0001977
0.0001976
0.0001975
0.0001974
0.0001973
0.0001972
0.0001971
0.000197
0.0001968
0.0001967
0.0001966
0.0001964
0.0001963
0.0001961
0.0001959
0.0001958
0.0001956
0.0001953
0.0001952
0.000195
0.0001948
0.0001945
0.0001943
0.0001941
0.0001938
0.0001936
0.0001934
0.000193
0.0001928
0.0001925
0.0001922
0.0001919
0.0001917
0.0001913
0.0001909
0.0001907
0.0001903
0.0001899
0.0001896
0.0001893
0.0001889
0.0001885
0.0001881
0.0001877
0.0001873
0.0001869
0.0001864
0.0001861
0.0001856
0.0001851
0.0001847
0.0001843
0.0001837
0.0001833
0.0001828
0.0001823
0.0001817
0.0001813
0.0001807
0.0001802
0.0001796
0.0001791
0.0001785
0.000178
0.0001773
0.0001768
0.0001762
0.0001755
0.000175
0.0001743
0.0001736
0.0001731
0.0001723
0.0001717
0.000171
0.0001703
0.0001697
0.0001689
0.0001682
0.0001674
0.0001668
0.0001659
0.0001653
0.0001644
0.0001637
0.0001629
0.0001621
0.0001612
0.0001605
0.0001596
0.0001588
0.000158
0.000157
0.0001563
0.0001553
0.0001544
0.0001536
0.0001526
0.0001517
0.0001507
0.0001499
0.0001488
0.0001479
0.0001469
0.000146
0.0001449
0.0001439
0.0001429
0.0001419
0.0001408
0.0001398
0.0001387
0.0001376
0.0001366
0.0001354
0.0001343
0.0001332
0.0001321
0.000131
0.0001297
0.0001287
0.0001274
0.0001263
0.000125
0.0001239
0.0001226
0.0001213
0.0001202
0.0001189
0.0001176
0.0001163
0.000115
0.0001138
0.0001124
0.0001111
0.0001097
0.0001084
0.0001071
0.0001056
0.0001043
0.0001029
0.0001014
0.0001001
9.86e-05
9.71e-05
9.57e-05
9.43e-05
9.27e-05
9.13e-05
8.97e-05
8.82e-05
8.67e-05
8.52e-05
8.36e-05
8.2e-05
8.05e-05
7.88e-05
7.73e-05
7.56e-05
7.4e-05
7.24e-05
7.07e-05
6.91e-05
6.73e-05
6.57e-05
6.4e-05
6.22e-05
6.06e-05
5.88e-05
5.7e-05
5.53e-05
5.35e-05
5.17e-05
4.99e-05
4.81e-05
4.62e-05
4.44e-05
4.26e-05
4.07e-05
3.88e-05
3.7e-05
3.5e-05
3.31e-05
3.12e-05
2.92e-05
2.73e-05
2.53e-05
2.33e-05
2.14e-05
1.93e-05
1.73e-05
1.53e-05
1.33e-05
1.12e-05
9.1e-06
7e-06
5e-06
2.8e-06
7e-07
-1.4e-06
-3.6e-06
-5.7e-06
-7.9e-06
-1.01e-05
-1.22e-05
-1.45e-05
-1.67e-05
-1.9e-05
-2.12e-05
-2.34e-05
-2.58e-05
-2.8e-05
-3.03e-05
-3.26e-05
-3.5e-05
-3.73e-05
-3.96e-05
-4.2e-05
-4.44e-05
-4.68e-05
-4.92e-05
-5.16e-05
-5.4e-05
-5.65e-05
-5.89e-05
-6.14e-05
-6.39e-05
-6.63e-05
-6.89e-05
-7.14e-05
-7.39e-05
-7.64e-05
-7.91e-05
-8.16e-05
-8.41e-05
-8.68e-05
-8.94e-05
-9.19e-05
-9.47e-05
-9.72e-05
-0.0001
-0.0001026
-0.0001053
-0.000108
-0.0001106
-0.0001135
-0.0001161
-0.0001189
-0.0001217
-0.0001244
-0.0001272
-0.00013
-0.0001329
-0.0001356
-0.0001385
-0.0001413
-0.0001442
-0.0001471
-0.00015
-0.0001528
-0.0001558
-0.0001587
-0.0001616
-0.0001646
-0.0001675
-0.0001705
-0.0001735
-0.0001765
-0.0001795
-0.0001825
-0.0001855
-0.0001886
-0.0001917
-0.0001947
-0.0001978
-0.0002009
-0.000204
-0.0002072
-0.0002102
-0.0002135
-0.0002165
-0.0002198
-0.0002229
-0.0002261
-0.0002293
-0.0002325
-0.0002357
-0.000239
-0.0002423
-0.0002455
-0.0002487
-0.0002521
-0.0002554
-0.0002586
-0.000262
-0.0002653
-0.0002687
-0.000272
-0.0002754
-0.0002788
-0.0002821
-0.0002856
-0.0002889
-0.0002924
-0.0002959
-0.0002992
-0.0003028
-0.0003061
-0.0003097
-0.0003132
-0.0003167
-0.0003201
-0.0003238
-0.0003272
-0.0003308
-0.0003343
-0.0003379
-0.0003415
-0.0003451
-0.0003487
-0.0003523
-0.0003559
-0.0003595
-0.0003632
-0.0003668
-0.0003705
-0.0003742
-0.0003778
-0.0003816
-0.0003852
-0.000389
-0.0003927
-0.0003964
-0.0004001
-0.000404
-0.0004076
-0.0004115
-0.0004152
-0.0004191
-0.0004228
-0.0004267
-0.0004304
-0.0004343
-0.0004382
-0.000442
-0.0004458
-0.0004498
-0.0004536
-0.0004575
-0.0004614
-0.0004653
-0.0004692
-0.0004731
-0.0004771
-0.000481
-0.000485
-0.0004889
-0.000493
-0.0004968
-0.0005009
-0.0005049
-0.0005089
-0.0005128
-0.0005169
-0.000521
-0.000525
-0.000529
-0.000533
-0.0005372
-0.0005412
-0.0005453
-0.0005494
-0.0005534
-0.0005576
-0.0005617
-0.0005658
-0.0005699
-0.000574
-0.0005782
-0.0005824
-0.0005865
-0.0005907
-0.0005948
-0.000599
-0.0006032
-0.0006074
-0.0006115
-0.0006158
-0.00062
-0.0006242
-0.0006285
-0.0006327
-0.0006369
-0.0006411
-0.0006454
-0.0006497
-0.0006539
-0.0006582
-0.0006625
-0.0006667
-0.0006711
-0.0006753
-0.0006796
-0.000684
-0.0006882
-0.0006926
-0.0006969
-0.0007012
-0.0007055
-0.0007099
-0.0007143
-0.0007185
-0.000723
-0.0007273
-0.0007316
-0.000736
-0.0007404
-0.0007448
-0.0007491
-0.0007536
-0.0007579
-0.0007623
-0.0007668
-0.0007711
0.0007755
0.00078
0.0007844
0.0007887
0.0007932
0.0007977
0.0008021
0.0008065
0.0008109
0.0008154
0.0008198
0.0008243
0.0008287
0.0008332
0.0008376
0.0008421
0.0008466
0.000851
0.0008555
0.0008599
0.0008645
0.0008689
0.0008733
0.0008779
0.0008824
0.0008868
0.0008913
0.0008958
0.0009003
0.0009048
0.0009092
0.0009138
0.0009183
0.0009227
0.0009273
0.0009317
0.0009363
0.0009407
0.0009453
0.0009497
0.0009543
0.0009587
0.0009633
0.0009678
0.0009722
0.0009768
0.0009813
0.0009858
0.0009902
0.0009948
0.0009993
0.0010038
0.0010083
0.0010128
0.0010173
0.0010218
0.0010263
0.0010309
0.0010353
0.0010398
0.0010442
0.0010488
0.0010533
0.0010578
0.0010623
0.0010667
0.0010712
0.0010758
0.0010802
0.0010846
0.0010892
0.0010936
0.0010981
0.0011026
0.0011071
0.0011115
0.001116
0.0011204
0.0011249
0.0011293
0.0011338
0.0011383
0.0011427
0.0011471
0.0011516
0.0011559
0.0011605
0.0011648
0.0011693
0.0011737
0.0011781
0.0011825
0.0011869
0.0011913
0.0011957
0.0012001
0.0012045
0.0012089
0.0012132
0.0012176
0.001222
0.0012263
0.0012307
0.0012351
0.0012394
0.0012437
0.001248
0.0012524
0.0012567
0.001261
0.0012654
0.0012696
0.0012739
0.0012782
0.0012825
0.0012868
0.001291
0.0012953
0.0012995
0.0013038
0.0013081
0.0013122
0.0013165
0.0013208
0.0013249
0.0013291
0.0013333
0.0013375
0.0013417
0.0013459
0.00135
0.0013541
0.0013584
0.0013624
0.0013666
0.0013707
0.0013748
0.0013789
0.001383
0.0013871
0.0013911
0.0013953
0.0013992
0.0014034
0.0014073
0.0014114
0.0014154
0.0014194
0.0014234
0.0014274
0.0014313
0.0014353
0.0014393
0.0014432
0.0014472
0.0014511
0.0014549
0.0014589
0.0014628
0.0014667
0.0014705
0.0014743
0.0014783
0.001482
0.0014859
0.0014896
0.0014935
0.0014972
0.0015011
0.0015048
0.0015085
0.0015122
0.001516
0.0015197
0.0015234
0.0015271
0.0015307
0.0015344
0.0015381
0.0015417
0.0015453
0.0015489
0.0015524
0.0015561
0.0015596
0.0015632
0.0015667
0.0015703
0.0015737
0.0015773
0.0015807
0.0015841
0.0015877
0.001591
0.0015945
0.0015979
0.0016013
0.0016046
0.0016081
0.0016113
0.0016147
0.001618
0.0016213
0.0016246
0.0016279
0.0016311
0.0016343
0.0016376
0.0016407
0.001644
0.0016471
0.0016503
0.0016534
0.0016565
0.0016597
0.0016627
0.0016658
0.0016689
0.0016718
0.001675
0.0016779
0.0016809
0.0016838
0.0016869
0.0016897
0.0016927
0.0016955
0.0016985
0.0017013
0.0017041
0.001707
0.0017098
0.0017126
0.0017153
0.0017181
0.0017208
0.0017236
0.0017262
0.001729
0.0017315
0.0017342
0.0017369
0.0017394
0.001742
0.0017446
0.0017471
0.0017497
0.0017521
0.0017547
0.0017571
0.0017595
0.001762
0.0017644
0.0017667
0.0017691
0.0017715
0.0017738
0.0017761
0.0017783
0.0017807
0.0017829
0.0017851
0.0017872
0.0017895
0.0017917
0.0017937
0.0017959
0.001798
0.0018
0.0018021
0.0018042
0.0018061
0.0018081
0.0018101
0.001812
0.001814
0.0018158
0.0018178
0.0018196
0.0018214
0.0018232
0.001825
0.0018268
0.0018285
0.0018303
0.0018319
0.0018336
0.0018353
0.0018369
0.0018385
0.0018401
0.0018417
0.0018432
0.0018447
0.0018462
0.0018476
0.0018491
0.0018506
0.0018519
0.0018533
0.0018547
0.001856
0.0018572
0.0018586
0.0018598
0.0018611
0.0018622
0.0018635
0.0018646
0.0018657
0.0018669
0.0018679
0.001869
0.0018701
0.001871
0.0018721
0.001873
0.0018739
0.0018749
0.0018757
0.0018766
0.0018775
0.0018782
0.0018791
0.0018798
0.0018806
0.0018813
0.0018819
0.0018827
0.0018832
0.0018839
0.0018845
0.001885
0.0018856
0.0018861
0.0018866
0.001887
0.0018875
0.0018879
0.0018882
0.0018886
0.001889
0.0018892
0.0018896
0.0018898
0.00189
0.0018902
0.0018904
0.0018905
0.0018907
0.0018907
0
0.0018909
0.0018908
0.0018909
0.0018909
0
0.0018908
0.0018908
0
0.0018907
0.0018906
0.0018904
0.0018903
0.00189
0.0018899
0.0018896
0.0018893
0.001889
0.0018887
0.0018883
0.001888
0.0018875
0.0018871
0.0018867
0.0018861
0.0018856
0.0018851
0.0018845
0.0018839
0.0018833
0.0018826
0.0018819
0.0018813
0.0018805
0.0018797
0.0018789
0.0018782
0.0018772
0.0018764
0.0018755
0.0018746
0.0018736
0.0018727
0.0018716
0.0018706
0.0018695
0.0018684
0.0018673
0.0018662
0.0018649
0.0018638
0.0018625
0.0018613
0.00186
0.0018587
0.0018574
0.0018559
0.0018546
0.0018531
0.0018517
0.0018502
0.0018488
0.0018471
0.0018456
0.001844
0.0018424
0.0018408
0.001839
0.0018374
0.0018357
0.0018338
0.0018321
0.0018303
0.0018284
0.0018266
0.0018247
0.0018227
0.0018208
0.0018188
0.0018168
0.0018148
0.0018127
0.0018106
0.0018085
0.0018063
0.0018042
0.0018019
0.0017998
0.0017974
0.0017952
0.0017929
0.0017905
0.0017882
0.0017858
0.0017833
0.0017809
0.0017784
0.0017759
0.0017734
0.0017708
0.0017682
0.0017656
0.0017629
0.0017603
0.0017576
0.0017548
0.0017521
0.0017493
0.0017465
0.0017437
0.0017408
0.0017379
0.001735
0.001732
0.0017291
0.0017261
0.001723
0.00172
0.0017169
0.0017137
0.0017107
0.0017075
0.0017043
0.001701
0.0016978
0.0016946
0.0016912
0.001688
0.0016845
0.0016812
0.0016778
0.0016744
0.0016708
0.0016674
0.0016639
0.0016604
0.0016567
0.0016532
0.0016496
0.0016459
0.0016422
0.0016386
0.0016348
0.001631
0.0016273
0.0016235
0.0016196
0.0016158
0.0016119
0.001608
0.0016041
0.0016001
0.0015961
0.0015921
0.001588
0.001584
0.0015799
0.0015758
0.0015716
0.0015675
0.0015633
0.001559
0.0015549
0.0015505
0.0015463
0.0015419
0.0015376
0.0015332
0.0015288
0.0015244
0.0015199
0.0015155
0.001511
0.0015065
0.0015019
0.0014973
0.0014928
0.0014881
0.0014835
0.0014788
0.0014742
0.0014694
0.0014646
0.00146
0.0014551
0.0014503
0.0014454
0.0014407
0.0014357
0.0014308
0.0014259
0.0014209
0.0014159
0.001411
0.0014059
0.0014009
0.0013958
0.0013906
0.0013856
0.0013805
0.0013752
0.0013701
0.0013649
0.0013596
0.0013544
0.0013491
0.0013438
0.0013384
0.0013332
0.0013277
0.0013224
0.0013169
0.0013115
0.0013061
0.0013006
0.001295
0.0012896
0.001284
0.0012784
0.0012729
0.0012672
0.0012616
0.001256
0.0012503
0.0012446
0.0012389
0.0012331
0.0012274
0.0012216
0.0012158
0.00121
0.0012042
0.0011983
0.0011924
0.0011865
0.0011806
0.0011746
0.0011687
0.0011628
0.0011567
0.0011507
0.0011446
0.0011386
0.0011326
0.0011264
0.0011203
0.0011142
0.001108
0.0011019
0.0010956
0.0010895
0.0010832
0.001077
0.0010707
0.0010644
0.0010582
0.0010518
0.0010455
0.0010391
0.0010327
0.0010264
0.0010199
0.0010136
0.001007
0.0010007
0.0009941
0.0009877
0.0009811
0.0009746
0.0009681
0.0009615
0.0009549
0.0009483
0.0009418
0.0009351
0.0009284
0.0009218
0.0009151
0.0009085
0.0009017
0.000895
0.0008883
0.0008815
0.0008748
0.0008679
0.0008612
0.0008544
0.0008475
0.0008407
0.0008338
0.000827
0.0008201
0.0008132
0.0008063
0.0007993
0.0007925
0.0007854
0.0007785
0.0007715
0.0007645
0.0007576
0.0007505
0.0007434
0.0007364
0.0007294
0.0007223
0.0007152
0.0007081
0.000701
0.0006939
0.0006867
0.0006796
0.0006725
0.0006652
0.0006581
0.000651
0.0006437
0.0006365
0.0006292
0.0006221
0.0006148
0.0006075
0.0006003
0.000593
0.0005857
0.0005784
0.0005711
0.0005638
0.0005564
0.0005491
0.0005418
0.0005344
0.0005271
0.0005197
0.0005123
0.0005049
0.0004975
0.0004901
0.0004826
0.0004753
0.0004678
0.0004604
0.0004529
0.0004454
0.000438
0.0004305
0.0004231
0.0004155
0.0004081
0.0004005
0.0003931
0.0003855
0.000378
0.0003704
0.000363
0.0003554
0.0003478
0.0003403
0.0003327
