# Pulseq sequence file
# Created by MATLAB mr toolbox

[VERSION]
major 1
minor 4
revision 1

[DEFINITIONS]
AdcRasterTime 1e-07 
BlockDurationRaster 1e-05 
FOV 0.22 0.22 0.004 
GradientRasterTime 1e-05 
Name trufi 
RadiofrequencyRasterTime 1e-06 
TotalDuration 1.21656 

# Format of blocks:
# NUM DUR RF  GX  GY  GZ  ADC  EXT
[BLOCKS]
  1 139   1   0   0   1  0  1
  2  98   0   4   3   2  0  0
  3   0   0   0   0   0  0  2
  4 139   2   6   5   1  0  0
  5 335   0   7   8   2  1  0
  6 139   3   6   9   1  0  0
  7 335   0   7   5   2  2  0
  8 139   2   6   3   1  0  0
  9 335   0   7  10   2  1  0
 10 139   3   6  11   1  0  0
 11 335   0   7  12   2  2  0
 12 139   2   6  13   1  0  0
 13 335   0   7  14   2  1  0
 14 139   3   6  15   1  0  0
 15 335   0   7  16   2  2  0
 16 139   2   6  17   1  0  0
 17 335   0   7  18   2  1  0
 18 139   3   6  19   1  0  0
 19 335   0   7  20   2  2  0
 20 139   2   6  21   1  0  0
 21 335   0   7  22   2  1  0
 22 139   3   6  23   1  0  0
 23 335   0   7  24   2  2  0
 24 139   2   6  25   1  0  0
 25 335   0   7  26   2  1  0
 26 139   3   6  27   1  0  0
 27 335   0   7  28   2  2  0
 28 139   2   6  29   1  0  0
 29 335   0   7  30   2  1  0
 30 139   3   6  31   1  0  0
 31 335   0   7  32   2  2  0
 32 139   2   6  33   1  0  0
 33 335   0   7  34   2  1  0
 34 139   3   6  35   1  0  0
 35 335   0   7  36   2  2  0
 36 139   2   6  37   1  0  0
 37 335   0   7  38   2  1  0
 38 139   3   6  39   1  0  0
 39 335   0   7  40   2  2  0
 40 139   2   6  41   1  0  0
 41 335   0   7  42   2  1  0
 42 139   3   6  43   1  0  0
 43 335   0   7  44   2  2  0
 44 139   2   6  45   1  0  0
 45 335   0   7  46   2  1  0
 46 139   3   6  47   1  0  0
 47 335   0   7  48   2  2  0
 48 139   2   6  49   1  0  0
 49 335   0   7  50   2  1  0
 50 139   3   6  51   1  0  0
 51 335   0   7  52   2  2  0
 52 139   2   6  53   1  0  0
 53 335   0   7  54   2  1  0
 54 139   3   6  55   1  0  0
 55 335   0   7  56   2  2  0
 56 139   2   6  57   1  0  0
 57 335   0   7  58   2  1  0
 58 139   3   6  59   1  0  0
 59 335   0   7  60   2  2  0
 60 139   2   6  61   1  0  0
 61 335   0   7  62   2  1  0
 62 139   3   6  63   1  0  0
 63 335   0   7  64   2  2  0
 64 139   2   6  65   1  0  0
 65 335   0   7  66   2  1  0
 66 139   3   6  67   1  0  0
 67 335   0   7  68   2  2  0
 68 139   2   6  69   1  0  0
 69 335   0   7  70   2  1  0
 70 139   3   6  71   1  0  0
 71 335   0   7  72   2  2  0
 72 139   2   6  73   1  0  0
 73 335   0   7  74   2  1  0
 74 139   3   6  75   1  0  0
 75 335   0   7  76   2  2  0
 76 139   2   6  77   1  0  0
 77 335   0   7  78   2  1  0
 78 139   3   6  79   1  0  0
 79 335   0   7  80   2  2  0
 80 139   2   6  81   1  0  0
 81 335   0   7  82   2  1  0
 82 139   3   6  83   1  0  0
 83 335   0   7  84   2  2  0
 84 139   2   6  85   1  0  0
 85 335   0   7  86   2  1  0
 86 139   3   6  87   1  0  0
 87 335   0   7  88   2  2  0
 88 139   2   6  89   1  0  0
 89 335   0   7  90   2  1  0
 90 139   3   6  91   1  0  0
 91 335   0   7  92   2  2  0
 92 139   2   6  93   1  0  0
 93 335   0   7  94   2  1  0
 94 139   3   6  95   1  0  0
 95 335   0   7  96   2  2  0
 96 139   2   6  97   1  0  0
 97 335   0   7  98   2  1  0
 98 139   3   6  99   1  0  0
 99 335   0   7 100   2  2  0
100 139   2   6 101   1  0  0
101 335   0   7 102   2  1  0
102 139   3   6 103   1  0  0
103 335   0   7 104   2  2  0
104 139   2   6 105   1  0  0
105 335   0   7 106   2  1  0
106 139   3   6 107   1  0  0
107 335   0   7 108   2  2  0
108 139   2   6 109   1  0  0
109 335   0   7 110   2  1  0
110 139   3   6 111   1  0  0
111 335   0   7 112   2  2  0
112 139   2   6 113   1  0  0
113 335   0   7 114   2  1  0
114 139   3   6 115   1  0  0
115 335   0   7 116   2  2  0
116 139   2   6 117   1  0  0
117 335   0   7 118   2  1  0
118 139   3   6 119   1  0  0
119 335   0   7 120   2  2  0
120 139   2   6 121   1  0  0
121 335   0   7 122   2  1  0
122 139   3   6 123   1  0  0
123 335   0   7 124   2  2  0
124 139   2   6 125   1  0  0
125 335   0   7 126   2  1  0
126 139   3   6 127   1  0  0
127 335   0   7 128   2  2  0
128 139   2   6 129   1  0  0
129 335   0   7 130   2  1  0
130 139   3   6 131   1  0  0
131 335   0   7 132   2  2  0
132 139   2   6 133   1  0  0
133 335   0   7 134   2  1  0
134 139   3   6 135   1  0  0
135 335   0   7 136   2  2  0
136 139   2   6 137   1  0  0
137 335   0   7 138   2  1  0
138 139   3   6 139   1  0  0
139 335   0   7 140   2  2  0
140 139   2   6 141   1  0  0
141 335   0   7 142   2  1  0
142 139   3   6 143   1  0  0
143 335   0   7 144   2  2  0
144 139   2   6 145   1  0  0
145 335   0   7 146   2  1  0
146 139   3   6 147   1  0  0
147 335   0   7 148   2  2  0
148 139   2   6 149   1  0  0
149 335   0   7 150   2  1  0
150 139   3   6 151   1  0  0
151 335   0   7 152   2  2  0
152 139   2   6 153   1  0  0
153 335   0   7 154   2  1  0
154 139   3   6 155   1  0  0
155 335   0   7 156   2  2  0
156 139   2   6 157   1  0  0
157 335   0   7 158   2  1  0
158 139   3   6 159   1  0  0
159 335   0   7 160   2  2  0
160 139   2   6 161   1  0  0
161 335   0   7 162   2  1  0
162 139   3   6 163   1  0  0
163 335   0   7 164   2  2  0
164 139   2   6 165   1  0  0
165 335   0   7 166   2  1  0
166 139   3   6 167   1  0  0
167 335   0   7 168   2  2  0
168 139   2   6 169   1  0  0
169 335   0   7 170   2  1  0
170 139   3   6 171   1  0  0
171 335   0   7 172   2  2  0
172 139   2   6 173   1  0  0
173 335   0   7 174   2  1  0
174 139   3   6 175   1  0  0
175 335   0   7 176   2  2  0
176 139   2   6 177   1  0  0
177 335   0   7 178   2  1  0
178 139   3   6 179   1  0  0
179 335   0   7 180   2  2  0
180 139   2   6 181   1  0  0
181 335   0   7 182   2  1  0
182 139   3   6 183   1  0  0
183 335   0   7 184   2  2  0
184 139   2   6 185   1  0  0
185 335   0   7 186   2  1  0
186 139   3   6 187   1  0  0
187 335   0   7 188   2  2  0
188 139   2   6 189   1  0  0
189 335   0   7 190   2  1  0
190 139   3   6 191   1  0  0
191 335   0   7 192   2  2  0
192 139   2   6 193   1  0  0
193 335   0   7 194   2  1  0
194 139   3   6 195   1  0  0
195 335   0   7 196   2  2  0
196 139   2   6 197   1  0  0
197 335   0   7 198   2  1  0
198 139   3   6 199   1  0  0
199 335   0   7 200   2  2  0
200 139   2   6 201   1  0  0
201 335   0   7 202   2  1  0
202 139   3   6 203   1  0  0
203 335   0   7 204   2  2  0
204 139   2   6 205   1  0  0
205 335   0   7 206   2  1  0
206 139   3   6 207   1  0  0
207 335   0   7 208   2  2  0
208 139   2   6 209   1  0  0
209 335   0   7 210   2  1  0
210 139   3   6 211   1  0  0
211 335   0   7 212   2  2  0
212 139   2   6 213   1  0  0
213 335   0   7 214   2  1  0
214 139   3   6 215   1  0  0
215 335   0   7 216   2  2  0
216 139   2   6 217   1  0  0
217 335   0   7 218   2  1  0
218 139   3   6 219   1  0  0
219 335   0   7 220   2  2  0
220 139   2   6 221   1  0  0
221 335   0   7 222   2  1  0
222 139   3   6 223   1  0  0
223 335   0   7 224   2  2  0
224 139   2   6 225   1  0  0
225 335   0   7 226   2  1  0
226 139   3   6 227   1  0  0
227 335   0   7 228   2  2  0
228 139   2   6 229   1  0  0
229 335   0   7 230   2  1  0
230 139   3   6 231   1  0  0
231 335   0   7 232   2  2  0
232 139   2   6 233   1  0  0
233 335   0   7 234   2  1  0
234 139   3   6 235   1  0  0
235 335   0   7 236   2  2  0
236 139   2   6 237   1  0  0
237 335   0   7 238   2  1  0
238 139   3   6 239   1  0  0
239 335   0   7 240   2  2  0
240 139   2   6 241   1  0  0
241 335   0   7 242   2  1  0
242 139   3   6 243   1  0  0
243 335   0   7 244   2  2  0
244 139   2   6 245   1  0  0
245 335   0   7 246   2  1  0
246 139   3   6 247   1  0  0
247 335   0   7 248   2  2  0
248 139   2   6 249   1  0  0
249 335   0   7 250   2  1  0
250 139   3   6 251   1  0  0
251 335   0   7 252   2  2  0
252 139   2   6 253   1  0  0
253 335   0   7 254   2  1  0
254 139   3   6 255   1  0  0
255 335   0   7 256   2  2  0
256 139   2   6 257   1  0  0
257 335   0   7 258   2  1  0
258 139   3   6 259   1  0  0
259 335   0   7 260   2  2  0
260 139   2   6 261   1  0  0
261 335   0   7 262   2  1  0
262 139   3   6 263   1  0  0
263 335   0   7 261   2  2  0
264 139   2   6 260   1  0  0
265 335   0   7 259   2  1  0
266 139   3   6 258   1  0  0
267 335   0   7 257   2  2  0
268 139   2   6 256   1  0  0
269 335   0   7 255   2  1  0
270 139   3   6 254   1  0  0
271 335   0   7 253   2  2  0
272 139   2   6 252   1  0  0
273 335   0   7 251   2  1  0
274 139   3   6 250   1  0  0
275 335   0   7 249   2  2  0
276 139   2   6 248   1  0  0
277 335   0   7 247   2  1  0
278 139   3   6 246   1  0  0
279 335   0   7 245   2  2  0
280 139   2   6 244   1  0  0
281 335   0   7 243   2  1  0
282 139   3   6 242   1  0  0
283 335   0   7 241   2  2  0
284 139   2   6 240   1  0  0
285 335   0   7 239   2  1  0
286 139   3   6 238   1  0  0
287 335   0   7 237   2  2  0
288 139   2   6 236   1  0  0
289 335   0   7 235   2  1  0
290 139   3   6 234   1  0  0
291 335   0   7 233   2  2  0
292 139   2   6 232   1  0  0
293 335   0   7 231   2  1  0
294 139   3   6 230   1  0  0
295 335   0   7 229   2  2  0
296 139   2   6 228   1  0  0
297 335   0   7 227   2  1  0
298 139   3   6 226   1  0  0
299 335   0   7 225   2  2  0
300 139   2   6 224   1  0  0
301 335   0   7 223   2  1  0
302 139   3   6 222   1  0  0
303 335   0   7 221   2  2  0
304 139   2   6 220   1  0  0
305 335   0   7 219   2  1  0
306 139   3   6 218   1  0  0
307 335   0   7 217   2  2  0
308 139   2   6 216   1  0  0
309 335   0   7 215   2  1  0
310 139   3   6 214   1  0  0
311 335   0   7 213   2  2  0
312 139   2   6 212   1  0  0
313 335   0   7 211   2  1  0
314 139   3   6 210   1  0  0
315 335   0   7 209   2  2  0
316 139   2   6 208   1  0  0
317 335   0   7 207   2  1  0
318 139   3   6 206   1  0  0
319 335   0   7 205   2  2  0
320 139   2   6 204   1  0  0
321 335   0   7 203   2  1  0
322 139   3   6 202   1  0  0
[RF]
1      208.295 1 2 0 770 0 0
2      416.589 1 2 0 770 0 3.14159
3      416.589 1 2 0 770 0 0

# Format of arbitrary gradients:
#   time_shape_id of 0 means default timing (stepping with grad_raster starting at 1/2 of grad_raster)
# id amplitude amp_shape_id time_shape_id delay
# ..      Hz/m       ..         ..          us
[GRADIENTS]
1 -1.10938e+06 3 4 260
2  1.10938e+06 5 6 0
4     1.25e+06 7 8 340
6   1.2766e+06 9 10 0
7  -1.2766e+06 11 12 0

# Format of trapezoid gradients:
# id amplitude rise flat fall delay
# ..      Hz/m   us   us   us    us
[TRAP]
 3       995298 170  410 170   0
 5      -995298 170  410 170   0
 8 -1.00313e+06 170  410 170   0
 9  1.00313e+06 170  410 170   0
10      -987461 170  410 170   0
11       987461 170  410 170   0
12      -979624 170  410 170   0
13       979624 170  410 170   0
14      -971787 170  410 170   0
15       971787 170  410 170   0
16      -947612 160  430 160   0
17       947612 160  430 160   0
18      -939908 160  430 160   0
19       939908 160  430 160   0
20      -932203 160  430 160   0
21       932203 160  430 160   0
22      -924499 160  430 160   0
23       924499 160  430 160   0
24      -916795 160  430 160   0
25       916795 160  430 160   0
26      -893939 150  450 150   0
27       893939 150  450 150   0
28      -886364 150  450 150   0
29       886364 150  450 150   0
30      -878788 150  450 150   0
31       878788 150  450 150   0
32      -871212 150  450 150   0
33       871212 150  450 150   0
34      -863636 150  450 150   0
35       863636 150  450 150   0
36      -856061 150  450 150   0
37       856061 150  450 150   0
38      -848485 150  450 150   0
39       848485 150  450 150   0
40      -827124 140  470 140   0
41       827124 140  470 140   0
42      -819672 140  470 140   0
43       819672 140  470 140   0
44      -812221 140  470 140   0
45       812221 140  470 140   0
46      -804769 140  470 140   0
47       804769 140  470 140   0
48      -797317 140  470 140   0
49       797317 140  470 140   0
50      -789866 140  470 140   0
51       789866 140  470 140   0
52      -769795 130  490 130   0
53       769795 130  490 130   0
54      -762463 130  490 130   0
55       762463 130  490 130   0
56      -755132 130  490 130   0
57       755132 130  490 130   0
58      -747801 130  490 130   0
59       747801 130  490 130   0
60      -740469 130  490 130   0
61       740469 130  490 130   0
62      -733138 130  490 130   0
63       733138 130  490 130   0
64      -714286 120  510 120   0
65       714286 120  510 120   0
66      -707071 120  510 120   0
67       707071 120  510 120   0
68      -699856 120  510 120   0
69       699856 120  510 120   0
70      -692641 120  510 120   0
71       692641 120  510 120   0
72      -685426 120  510 120   0
73       685426 120  510 120   0
74      -678211 120  510 120   0
75       678211 120  510 120   0
76      -670996 120  510 120   0
77       670996 120  510 120   0
78      -653409 110  530 110   0
79       653409 110  530 110   0
80      -646307 110  530 110   0
81       646307 110  530 110   0
82      -639205 110  530 110   0
83       639205 110  530 110   0
84      -632102 110  530 110   0
85       632102 110  530 110   0
86      -625000 110  530 110   0
87       625000 110  530 110   0
88      -617898 110  530 110   0
89       617898 110  530 110   0
90      -610795 110  530 110   0
91       610795 110  530 110   0
92      -594406 100  550 100   0
93       594406 100  550 100   0
94      -587413 100  550 100   0
95       587413 100  550 100   0
96      -580420 100  550 100   0
97       580420 100  550 100   0
98      -573427 100  550 100   0
99       573427 100  550 100   0
100      -566434 100  550 100   0
101       566434 100  550 100   0
102      -559441 100  550 100   0
103       559441 100  550 100   0
104      -552448 100  550 100   0
105       552448 100  550 100   0
106      -545455 100  550 100   0
107       545455 100  550 100   0
108      -530303  90  570  90   0
109       530303  90  570  90   0
110      -523416  90  570  90   0
111       523416  90  570  90   0
112      -516529  90  570  90   0
113       516529  90  570  90   0
114      -509642  90  570  90   0
115       509642  90  570  90   0
116      -502755  90  570  90   0
117       502755  90  570  90   0
118      -495868  90  570  90   0
119       495868  90  570  90   0
120      -488981  90  570  90   0
121       488981  90  570  90   0
122      -474898  80  590  80   0
123       474898  80  590  80   0
124      -468114  80  590  80   0
125       468114  80  590  80   0
126      -461330  80  590  80   0
127       461330  80  590  80   0
128      -454545  80  590  80   0
129       454545  80  590  80   0
130      -447761  80  590  80   0
131       447761  80  590  80   0
132      -440977  80  590  80   0
133       440977  80  590  80   0
134      -434193  80  590  80   0
135       434193  80  590  80   0
136      -427408  80  590  80   0
137       427408  80  590  80   0
138      -414439  70  610  70   0
139       414439  70  610  70   0
140      -407754  70  610  70   0
141       407754  70  610  70   0
142      -401070  70  610  70   0
143       401070  70  610  70   0
144      -394385  70  610  70   0
145       394385  70  610  70   0
146      -387701  70  610  70   0
147       387701  70  610  70   0
148      -381016  70  610  70   0
149       381016  70  610  70   0
150      -374332  70  610  70   0
151       374332  70  610  70   0
152      -367647  70  610  70   0
153       367647  70  610  70   0
154      -355731  60  630  60   0
155       355731  60  630  60   0
156      -349144  60  630  60   0
157       349144  60  630  60   0
158      -342556  60  630  60   0
159       342556  60  630  60   0
160      -335968  60  630  60   0
161       335968  60  630  60   0
162      -329381  60  630  60   0
163       329381  60  630  60   0
164      -322793  60  630  60   0
165       322793  60  630  60   0
166      -316206  60  630  60   0
167       316206  60  630  60   0
168      -309618  60  630  60   0
169       309618  60  630  60   0
170      -303030  60  630  60   0
171       303030  60  630  60   0
172      -292208  50  650  50   0
173       292208  50  650  50   0
174      -285714  50  650  50   0
175       285714  50  650  50   0
176      -279221  50  650  50   0
177       279221  50  650  50   0
178      -272727  50  650  50   0
179       272727  50  650  50   0
180      -266234  50  650  50   0
181       266234  50  650  50   0
182      -259740  50  650  50   0
183       259740  50  650  50   0
184      -253247  50  650  50   0
185       253247  50  650  50   0
186      -246753  50  650  50   0
187       246753  50  650  50   0
188      -236876  40  670  40   0
189       236876  40  670  40   0
190      -230474  40  670  40   0
191       230474  40  670  40   0
192      -224072  40  670  40   0
193       224072  40  670  40   0
194      -217670  40  670  40   0
195       217670  40  670  40   0
196      -211268  40  670  40   0
197       211268  40  670  40   0
198      -204866  40  670  40   0
199       204866  40  670  40   0
200      -198464  40  670  40   0
201       198464  40  670  40   0
202      -192061  40  670  40   0
203       192061  40  670  40   0
204      -185659  40  670  40   0
205       185659  40  670  40   0
206      -176768  30  690  30   0
207       176768  30  690  30   0
208      -170455  30  690  30   0
209       170455  30  690  30   0
210      -164141  30  690  30   0
211       164141  30  690  30   0
212      -157828  30  690  30   0
213       157828  30  690  30   0
214      -151515  30  690  30   0
215       151515  30  690  30   0
216      -145202  30  690  30   0
217       145202  30  690  30   0
218      -138889  30  690  30   0
219       138889  30  690  30   0
220      -132576  30  690  30   0
221       132576  30  690  30   0
222      -126263  30  690  30   0
223       126263  30  690  30   0
224      -118306  20  710  20   0
225       118306  20  710  20   0
226      -112080  20  710  20   0
227       112080  20  710  20   0
228      -105853  20  710  20   0
229       105853  20  710  20   0
230     -99626.4  20  710  20   0
231      99626.4  20  710  20   0
232     -93399.8  20  710  20   0
233      93399.8  20  710  20   0
234     -87173.1  20  710  20   0
235      87173.1  20  710  20   0
236     -80946.5  20  710  20   0
237      80946.5  20  710  20   0
238     -74719.8  20  710  20   0
239      74719.8  20  710  20   0
240     -68493.2  20  710  20   0
241      68493.2  20  710  20   0
242     -62266.5  20  710  20   0
243      62266.5  20  710  20   0
244     -55282.6  10  730  10   0
245      55282.6  10  730  10   0
246       -49140  10  730  10   0
247        49140  10  730  10   0
248     -42997.5  10  730  10   0
249      42997.5  10  730  10   0
250       -36855  10  730  10   0
251        36855  10  730  10   0
252     -30712.5  10  730  10   0
253      30712.5  10  730  10   0
254       -24570  10  730  10   0
255        24570  10  730  10   0
256     -18427.5  10  730  10   0
257      18427.5  10  730  10   0
258       -12285  10  730  10   0
259        12285  10  730  10   0
260     -6142.51  10  730  10   0
261      6142.51  10  730  10   0
262            0  10  730  10   0
263           -0  10  730  10   0

# Format of ADC events:
# id num dwell delay freq phase
# ..  ..    ns    us   Hz   rad
[ADC]
1 256 10000 770 0 3.14159
2 256 10000 770 0 0

# Format of extension lists:
# id type ref next_id
# next_id of 0 terminates the list
# Extension list is followed by extension specifications
[EXTENSIONS]
1 1 1 0
2 1 2 0
3 1 3 0

# Extension specification for setting labels:
# id set labelstring
extension LABELSET 1
1 1 ONCE
2 0 ONCE
3 2 ONCE

# Sequence Shapes
[SHAPES]

shape_id 1
num_samples 600
2.06841386e-06
1.88227171e-05
5.28599524e-05
0.000104730989
0.000174985766
0.00026417313
0.000372840677
0.000501534589
0.000650799475
0.00082117821
0.00101321177
0.00122743908
0.00146439685
0.00172461939
0.00200863849
0.00231698324
0.00265017986
0.00300875155
0.00339321834
0.00380409689
0.0042419004
0.00470713839
0.00520031655
0.00572193662
0.00627249619
0.00685248857
0.00746240262
0.00810272261
0.00877392805
0.00947649352
0.0102108886
0.0109775776
0.0117770194
0.0126096676
0.0134759698
0.0143763681
0.0153112985
0.0162811909
0.017286469
0.0183275499
0.0194048445
0.0205187567
0.0216696839
0.0228580163
0.0240841371
0.0253484223
0.0266512404
0.0279929526
0.0293739123
0.0307944654
0.0322549495
0.0337556947
0.0352970226
0.0368792467
0.0385026721
0.0401675953
0.0418743044
0.0436230786
0.0454141884
0.0472478953
0.0491244516
0.0510441007
0.0530070765
0.0550136037
0.0570638974
0.0591581632
0.0612965971
0.0634793851
0.0657067037
0.0679787191
0.0702955877
0.0726574558
0.0750644593
0.0775167241
0.0800143655
0.0825574885
0.0851461876
0.0877805467
0.0904606391
0.0931865274
0.0959582633
0.0987758878
0.101639431
0.104548912
0.10750434
0.11050571
0.11355301
0.116646214
0.119785286
0.122970179
0.126200833
0.12947718
0.132799137
0.136166612
0.139579501
0.143037689
0.146541049
0.150089443
0.153682722
0.157320724
0.161003277
0.164730197
0.16850129
0.172316347
0.176175151
0.180077473
0.18402307
0.188011692
0.192043074
0.19611694
0.200233005
0.20439097
0.208590526
0.212831353
0.217113118
0.22143548
0.225798084
0.230200565
0.234642547
0.239123642
0.243643453
0.24820157
0.252797572
0.257431031
0.262101503
0.266808538
0.271551671
0.27633043
0.28114433
0.285992879
0.290875571
0.295791892
0.300741317
0.30572331
0.310737329
0.315782816
0.32085921
0.325965934
0.331102406
0.336268032
0.341462211
0.346684329
0.351933767
0.357209895
0.362512074
0.367839656
0.373191985
0.378568396
0.383968217
0.389390765
0.394835352
0.400301278
0.40578784
0.411294324
0.416820008
0.422364165
0.427926058
0.433504945
0.439100077
0.444710695
0.450336037
0.455975333
0.461627806
0.467292673
0.472969146
0.478656429
0.484353723
0.49006022
0.49577511
0.501497575
0.507226794
0.512961939
0.518702178
0.524446676
0.530194592
0.53594508
0.541697292
0.547450374
0.553203471
0.558955721
0.564706263
0.570454228
0.576198747
0.581938949
0.587673958
0.593402898
0.599124887
0.604839045
0.610544489
0.616240334
0.621925693
0.627599678
0.633261401
0.638909972
0.644544502
0.650164098
0.655767871
0.661354929
0.666924381
0.672475337
0.678006906
0.6835182
0.68900833
0.694476407
0.699921547
0.705342865
0.710739477
0.716110504
0.721455065
0.726772285
0.732061289
0.737321205
0.742551167
0.747750307
0.752917764
0.758052679
0.763154197
0.768221466
0.773253641
0.778249877
0.783209336
0.788131184
0.793014592
0.797858737
0.802662799
0.807425964
0.812147426
0.81682638
0.821462032
0.826053591
0.830600273
0.8351013
0.839555902
0.843963315
0.848322781
0.852633552
0.856894884
0.861106042
0.865266299
0.869374936
0.873431241
0.877434511
0.881384051
0.885279174
0.889119204
0.89290347
0.896631312
0.900302081
0.903915134
0.907469839
0.910965573
0.914401724
0.917777689
0.921092874
0.924346696
0.927538583
0.930667973
0.933734314
0.936737064
0.939675694
0.942549683
0.945358525
0.94810172
0.950778784
0.953389242
0.955932631
0.958408498
0.960816406
0.963155924
0.965426638
0.967628143
0.969760047
0.97182197
0.973813544
0.975734416
0.977584241
0.979362689
0.981069443
0.982704198
0.984266661
0.985756553
0.987173608
0.988517572
0.989788204
0.990985277
0.992108576
0.9931579
0.994133061
0.995033884
0.995860207
0.996611883
0.997288776
0.997890765
0.998417743
0.998869613
0.999246296
0.999547723
0.999773841
0.999924609
1
1
0.999924609
0.999773841
0.999547723
0.999246296
0.998869613
0.998417743
0.997890765
0.997288776
0.996611883
0.995860207
0.995033884
0.994133061
0.9931579
0.992108576
0.990985277
0.989788204
0.988517572
0.987173608
0.985756553
0.984266661
0.982704198
0.981069443
0.979362689
0.977584241
0.975734416
0.973813544
0.97182197
0.969760047
0.967628143
0.965426638
0.963155924
0.960816406
0.958408498
0.955932631
0.953389242
0.950778784
0.94810172
0.945358525
0.942549683
0.939675694
0.936737064
0.933734314
0.930667973
0.927538583
0.924346696
0.921092874
0.917777689
0.914401724
0.910965573
0.907469839
0.903915134
0.900302081
0.896631312
0.89290347
0.889119204
0.885279174
0.881384051
0.877434511
0.873431241
0.869374936
0.865266299
0.861106042
0.856894884
0.852633552
0.848322781
0.843963315
0.839555902
0.8351013
0.830600273
0.826053591
0.821462032
0.81682638
0.812147426
0.807425964
0.802662799
0.797858737
0.793014592
0.788131184
0.783209336
0.778249877
0.773253641
0.768221466
0.763154197
0.758052679
0.752917764
0.747750307
0.742551167
0.737321205
0.732061289
0.726772285
0.721455065
0.716110504
0.710739477
0.705342865
0.699921547
0.694476407
0.68900833
0.6835182
0.678006906
0.672475337
0.666924381
0.661354929
0.655767871
0.650164098
0.644544502
0.638909972
0.633261401
0.627599678
0.621925693
0.616240334
0.610544489
0.604839045
0.599124887
0.593402898
0.587673958
0.581938949
0.576198747
0.570454228
0.564706263
0.558955721
0.553203471
0.547450374
0.541697292
0.53594508
0.530194592
0.524446676
0.518702178
0.512961939
0.507226794
0.501497575
0.49577511
0.49006022
0.484353723
0.478656429
0.472969146
0.467292673
0.461627806
0.455975333
0.450336037
0.444710695
0.439100077
0.433504945
0.427926058
0.422364165
0.416820008
0.411294324
0.40578784
0.400301278
0.394835352
0.389390765
0.383968217
0.378568396
0.373191985
0.367839656
0.362512074
0.357209895
0.351933767
0.346684329
0.341462211
0.336268032
0.331102406
0.325965934
0.32085921
0.315782816
0.310737329
0.30572331
0.300741317
0.295791892
0.290875571
0.285992879
0.28114433
0.27633043
0.271551671
0.266808538
0.262101503
0.257431031
0.252797572
0.24820157
0.243643453
0.239123642
0.234642547
0.230200565
0.225798084
0.22143548
0.217113118
0.212831353
0.208590526
0.20439097
0.200233005
0.19611694
0.192043074
0.188011692
0.18402307
0.180077473
0.176175151
0.172316347
0.16850129
0.164730197
0.161003277
0.157320724
0.153682722
0.150089443
0.146541049
0.143037689
0.139579501
0.136166612
0.132799137
0.12947718
0.126200833
0.122970179
0.119785286
0.116646214
0.11355301
0.11050571
0.10750434
0.104548912
0.101639431
0.0987758878
0.0959582633
0.0931865274
0.0904606391
0.0877805467
0.0851461876
0.0825574885
0.0800143655
0.0775167241
0.0750644593
0.0726574558
0.0702955877
0.0679787191
0.0657067037
0.0634793851
0.0612965971
0.0591581632
0.0570638974
0.0550136037
0.0530070765
0.0510441007
0.0491244516
0.0472478953
0.0454141884
0.0436230786
0.0418743044
0.0401675953
0.0385026721
0.0368792467
0.0352970226
0.0337556947
0.0322549495
0.0307944654
0.0293739123
0.0279929526
0.0266512404
0.0253484223
0.0240841371
0.0228580163
0.0216696839
0.0205187567
0.0194048445
0.0183275499
0.017286469
0.0162811909
0.0153112985
0.0143763681
0.0134759698
0.0126096676
0.0117770194
0.0109775776
0.0102108886
0.00947649352
0.00877392805
0.00810272261
0.00746240262
0.00685248857
0.00627249619
0.00572193662
0.00520031655
0.00470713839
0.0042419004
0.00380409689
0.00339321834
0.00300875155
0.00265017986
0.00231698324
0.00200863849
0.00172461939
0.00146439685
0.00122743908
0.00101321177
0.00082117821
0.000650799475
0.000501534589
0.000372840677
0.00026417313
0.000174985766
0.000104730989
5.28599524e-05
1.88227171e-05
2.06841386e-06

shape_id 2
num_samples 600
0
0
598

shape_id 3
num_samples 6
-0
1
-0
-0.563380282
-0.563380282
-0.460947503

shape_id 4
num_samples 6
0
20
40
51
111
113

shape_id 5
num_samples 4
0.460947503
0
-1
0

shape_id 6
num_samples 4
0
9
29
49

shape_id 7
num_samples 4
0
1
1
0.272727273

shape_id 8
num_samples 4
0
22
48
64

shape_id 9
num_samples 5
0.267045455
0
-1
-1
0

shape_id 10
num_samples 5
0
6
28
53
75

shape_id 11
num_samples 7
-0
1
1
-0
-0.356060606
-0.356060606
-0.267045455

shape_id 12
num_samples 7
0
22
47
69
77
333
335


[SIGNATURE]
# This is the hash of the Pulseq file, calculated right before the [SIGNATURE] section was added
# It can be reproduced/verified with md5sum if the file trimmed to the position right above [SIGNATURE]
# The new line character preceding [SIGNATURE] BELONGS to the signature (and needs to be sripped away for recalculating/verification)
Type md5
Hash 152de5751989001b6c883307779cf03c
