# Pulseq sequence file
# Created by MATLAB mr toolbox

[VERSION]
major 1
minor 2
revision 0

# Format of blocks:
#  #  D RF  GX  GY  GZ ADC
[BLOCKS]
  1  0  1   0   0   1  0
  2  0  0   0   0   2  0
  3  1  0   0   0   0  0
  4  0  2   0   0   1  0
  5  0  0   3   4   2  1
  6  0  2   6   5   1  0
  7  0  0   3   7   2  1
  8  0  2   6   8   1  0
  9  0  0   3   9   2  1
 10  0  2   6  10   1  0
 11  0  0   3  11   2  1
 12  0  2   6  12   1  0
 13  0  0   3  13   2  1
 14  0  2   6  14   1  0
 15  0  0   3  15   2  1
 16  0  2   6  16   1  0
 17  0  0   3  17   2  1
 18  0  2   6  18   1  0
 19  0  0   3  19   2  1
 20  0  2   6  20   1  0
 21  0  0   3  21   2  1
 22  0  2   6  22   1  0
 23  0  0   3  23   2  1
 24  0  2   6  24   1  0
 25  0  0   3  25   2  1
 26  0  2   6  26   1  0
 27  0  0   3  27   2  1
 28  0  2   6  28   1  0
 29  0  0   3  29   2  1
 30  0  2   6  30   1  0
 31  0  0   3  31   2  1
 32  0  2   6  32   1  0
 33  0  0   3  33   2  1
 34  0  2   6  34   1  0
 35  0  0   3  35   2  1
 36  0  2   6  36   1  0
 37  0  0   3  37   2  1
 38  0  2   6  38   1  0
 39  0  0   3  39   2  1
 40  0  2   6  40   1  0
 41  0  0   3  41   2  1
 42  0  2   6  42   1  0
 43  0  0   3  43   2  1
 44  0  2   6  44   1  0
 45  0  0   3  45   2  1
 46  0  2   6  46   1  0
 47  0  0   3  47   2  1
 48  0  2   6  48   1  0
 49  0  0   3  49   2  1
 50  0  2   6  50   1  0
 51  0  0   3  51   2  1
 52  0  2   6  52   1  0
 53  0  0   3  53   2  1
 54  0  2   6  54   1  0
 55  0  0   3  55   2  1
 56  0  2   6  56   1  0
 57  0  0   3  57   2  1
 58  0  2   6  58   1  0
 59  0  0   3  59   2  1
 60  0  2   6  60   1  0
 61  0  0   3  61   2  1
 62  0  2   6  62   1  0
 63  0  0   3  63   2  1
 64  0  2   6  64   1  0
 65  0  0   3  65   2  1
 66  0  2   6  66   1  0
 67  0  0   3  67   2  1
 68  0  2   6  68   1  0
 69  0  0   3  69   2  1
 70  0  2   6  70   1  0
 71  0  0   3  71   2  1
 72  0  2   6  72   1  0
 73  0  0   3  73   2  1
 74  0  2   6  74   1  0
 75  0  0   3  75   2  1
 76  0  2   6  76   1  0
 77  0  0   3  77   2  1
 78  0  2   6  78   1  0
 79  0  0   3  79   2  1
 80  0  2   6  80   1  0
 81  0  0   3  81   2  1
 82  0  2   6  82   1  0
 83  0  0   3  83   2  1
 84  0  2   6  84   1  0
 85  0  0   3  85   2  1
 86  0  2   6  86   1  0
 87  0  0   3  87   2  1
 88  0  2   6  88   1  0
 89  0  0   3  89   2  1
 90  0  2   6  90   1  0
 91  0  0   3  91   2  1
 92  0  2   6  92   1  0
 93  0  0   3  93   2  1
 94  0  2   6  94   1  0
 95  0  0   3  95   2  1
 96  0  2   6  96   1  0
 97  0  0   3  97   2  1
 98  0  2   6  98   1  0
 99  0  0   3  99   2  1
100  0  2   6 100   1  0
101  0  0   3 101   2  1
102  0  2   6 102   1  0
103  0  0   3 103   2  1
104  0  2   6 104   1  0
105  0  0   3 105   2  1
106  0  2   6 106   1  0
107  0  0   3 107   2  1
108  0  2   6 108   1  0
109  0  0   3 109   2  1
110  0  2   6 110   1  0
111  0  0   3 111   2  1
112  0  2   6 112   1  0
113  0  0   3 113   2  1
114  0  2   6 114   1  0
115  0  0   3 115   2  1
116  0  2   6 116   1  0
117  0  0   3 117   2  1
118  0  2   6 118   1  0
119  0  0   3 119   2  1
120  0  2   6 120   1  0
121  0  0   3 121   2  1
122  0  2   6 122   1  0
123  0  0   3 123   2  1
124  0  2   6 124   1  0
125  0  0   3 125   2  1
126  0  2   6 126   1  0
127  0  0   3 127   2  1
128  0  2   6 128   1  0
129  0  0   3 129   2  1
130  0  2   6 130   1  0
131  0  0   3 131   2  1
132  0  2   6 132   1  0
133  0  0   3 133   2  1
134  0  2   6 134   1  0
135  0  0   3 135   2  1
136  0  2   6 136   1  0
137  0  0   3 137   2  1
138  0  2   6 138   1  0
139  0  0   3 139   2  1
140  0  2   6 140   1  0
141  0  0   3 141   2  1
142  0  2   6 142   1  0
143  0  0   3 143   2  1
144  0  2   6 144   1  0
145  0  0   3 145   2  1
146  0  2   6 146   1  0
147  0  0   3 147   2  1
148  0  2   6 148   1  0
149  0  0   3 149   2  1
150  0  2   6 150   1  0
151  0  0   3 151   2  1
152  0  2   6 152   1  0
153  0  0   3 153   2  1
154  0  2   6 154   1  0
155  0  0   3 155   2  1
156  0  2   6 156   1  0
157  0  0   3 157   2  1
158  0  2   6 158   1  0
159  0  0   3 159   2  1
160  0  2   6 160   1  0
161  0  0   3 161   2  1
162  0  2   6 162   1  0
163  0  0   3 163   2  1
164  0  2   6 164   1  0
165  0  0   3 165   2  1
166  0  2   6 166   1  0
167  0  0   3 167   2  1
168  0  2   6 168   1  0
169  0  0   3 169   2  1
170  0  2   6 170   1  0
171  0  0   3 171   2  1
172  0  2   6 172   1  0
173  0  0   3 173   2  1
174  0  2   6 174   1  0
175  0  0   3 175   2  1
176  0  2   6 176   1  0
177  0  0   3 177   2  1
178  0  2   6 178   1  0
179  0  0   3 179   2  1
180  0  2   6 180   1  0
181  0  0   3 181   2  1
182  0  2   6 182   1  0
183  0  0   3 183   2  1
184  0  2   6 184   1  0
185  0  0   3 185   2  1
186  0  2   6 186   1  0
187  0  0   3 187   2  1
188  0  2   6 188   1  0
189  0  0   3 189   2  1
190  0  2   6 190   1  0
191  0  0   3 191   2  1
192  0  2   6 192   1  0
193  0  0   3 193   2  1
194  0  2   6 194   1  0
195  0  0   3 195   2  1
196  0  2   6 196   1  0
197  0  0   3 197   2  1
198  0  2   6 198   1  0
199  0  0   3 199   2  1
200  0  2   6 200   1  0
201  0  0   3 201   2  1
202  0  2   6 202   1  0
203  0  0   3 203   2  1
204  0  2   6 204   1  0
205  0  0   3 205   2  1
206  0  2   6 206   1  0
207  0  0   3 207   2  1
208  0  2   6 208   1  0
209  0  0   3 209   2  1
210  0  2   6 210   1  0
211  0  0   3 211   2  1
212  0  2   6 212   1  0
213  0  0   3 213   2  1
214  0  2   6 214   1  0
215  0  0   3 215   2  1
216  0  2   6 216   1  0
217  0  0   3 217   2  1
218  0  2   6 218   1  0
219  0  0   3 219   2  1
220  0  2   6 220   1  0
221  0  0   3 221   2  1
222  0  2   6 222   1  0
223  0  0   3 223   2  1
224  0  2   6 224   1  0
225  0  0   3 225   2  1
226  0  2   6 226   1  0
227  0  0   3 227   2  1
228  0  2   6 228   1  0
229  0  0   3 229   2  1
230  0  2   6 230   1  0
231  0  0   3 231   2  1
232  0  2   6 232   1  0
233  0  0   3 233   2  1
234  0  2   6 234   1  0
235  0  0   3 235   2  1
236  0  2   6 236   1  0
237  0  0   3 237   2  1
238  0  2   6 238   1  0
239  0  0   3 239   2  1
240  0  2   6 240   1  0
241  0  0   3 241   2  1
242  0  2   6 242   1  0
243  0  0   3 243   2  1
244  0  2   6 244   1  0
245  0  0   3 245   2  1
246  0  2   6 246   1  0
247  0  0   3 247   2  1
248  0  2   6 248   1  0
249  0  0   3 249   2  1
250  0  2   6 250   1  0
251  0  0   3 251   2  1
252  0  2   6 252   1  0
253  0  0   3 253   2  1
254  0  2   6 254   1  0
255  0  0   3 255   2  1
256  0  2   6 256   1  0
257  0  0   3 257   2  1
258  0  2   6 258   1  0
259  0  0   3 259   2  1
260  0  2   6 260   1  0
261  0  0   3 261   2  1
262  0  2   6 262   1  0
263  0  0   3 260   2  1
264  0  2   6 259   1  0
265  0  0   3 258   2  1
266  0  2   6 257   1  0
267  0  0   3 256   2  1
268  0  2   6 255   1  0
269  0  0   3 254   2  1
270  0  2   6 253   1  0
271  0  0   3 252   2  1
272  0  2   6 251   1  0
273  0  0   3 250   2  1
274  0  2   6 249   1  0
275  0  0   3 248   2  1
276  0  2   6 247   1  0
277  0  0   3 246   2  1
278  0  2   6 245   1  0
279  0  0   3 244   2  1
280  0  2   6 243   1  0
281  0  0   3 242   2  1
282  0  2   6 241   1  0
283  0  0   3 240   2  1
284  0  2   6 239   1  0
285  0  0   3 238   2  1
286  0  2   6 237   1  0
287  0  0   3 236   2  1
288  0  2   6 235   1  0
289  0  0   3 234   2  1
290  0  2   6 233   1  0
291  0  0   3 232   2  1
292  0  2   6 231   1  0
293  0  0   3 230   2  1
294  0  2   6 229   1  0
295  0  0   3 228   2  1
296  0  2   6 227   1  0
297  0  0   3 226   2  1
298  0  2   6 225   1  0
299  0  0   3 224   2  1
300  0  2   6 223   1  0
301  0  0   3 222   2  1
302  0  2   6 221   1  0
303  0  0   3 220   2  1
304  0  2   6 219   1  0
305  0  0   3 218   2  1
306  0  2   6 217   1  0
307  0  0   3 216   2  1
308  0  2   6 215   1  0
309  0  0   3 214   2  1
310  0  2   6 213   1  0
311  0  0   3 212   2  1
312  0  2   6 211   1  0
313  0  0   3 210   2  1
314  0  2   6 209   1  0
315  0  0   3 208   2  1
316  0  2   6 207   1  0
317  0  0   3 206   2  1
318  0  2   6 205   1  0
319  0  0   3 204   2  1
320  0  2   6 203   1  0
321  0  0   3 202   2  1
322  0  2   6 201   1  0
323  0  0   3 200   2  1
324  0  2   6 199   1  0
325  0  0   3 198   2  1
326  0  2   6 197   1  0
327  0  0   3 196   2  1
328  0  2   6 195   1  0
329  0  0   3 194   2  1
330  0  2   6 193   1  0
331  0  0   3 192   2  1
332  0  2   6 191   1  0
333  0  0   3 190   2  1
334  0  2   6 189   1  0
335  0  0   3 188   2  1
336  0  2   6 187   1  0
337  0  0   3 186   2  1
338  0  2   6 185   1  0
339  0  0   3 184   2  1
340  0  2   6 183   1  0
341  0  0   3 182   2  1
342  0  2   6 181   1  0
343  0  0   3 180   2  1
344  0  2   6 179   1  0
345  0  0   3 178   2  1
346  0  2   6 177   1  0
347  0  0   3 176   2  1
348  0  2   6 175   1  0
349  0  0   3 174   2  1
350  0  2   6 173   1  0
351  0  0   3 172   2  1
352  0  2   6 171   1  0
353  0  0   3 170   2  1
354  0  2   6 169   1  0
355  0  0   3 168   2  1
356  0  2   6 167   1  0
357  0  0   3 166   2  1
358  0  2   6 165   1  0
359  0  0   3 164   2  1
360  0  2   6 163   1  0
361  0  0   3 162   2  1
362  0  2   6 161   1  0
363  0  0   3 160   2  1
364  0  2   6 159   1  0
365  0  0   3 158   2  1
366  0  2   6 157   1  0
367  0  0   3 156   2  1
368  0  2   6 155   1  0
369  0  0   3 154   2  1
370  0  2   6 153   1  0
371  0  0   3 152   2  1
372  0  2   6 151   1  0
373  0  0   3 150   2  1
374  0  2   6 149   1  0
375  0  0   3 148   2  1
376  0  2   6 147   1  0
377  0  0   3 146   2  1
378  0  2   6 145   1  0
379  0  0   3 144   2  1
380  0  2   6 143   1  0
381  0  0   3 142   2  1
382  0  2   6 141   1  0
383  0  0   3 140   2  1
384  0  2   6 139   1  0
385  0  0   3 138   2  1
386  0  2   6 137   1  0
387  0  0   3 136   2  1
388  0  2   6 135   1  0
389  0  0   3 134   2  1
390  0  2   6 133   1  0
391  0  0   3 132   2  1
392  0  2   6 131   1  0
393  0  0   3 130   2  1
394  0  2   6 129   1  0
395  0  0   3 128   2  1
396  0  2   6 127   1  0
397  0  0   3 126   2  1
398  0  2   6 125   1  0
399  0  0   3 124   2  1
400  0  2   6 123   1  0
401  0  0   3 122   2  1
402  0  2   6 121   1  0
403  0  0   3 120   2  1
404  0  2   6 119   1  0
405  0  0   3 118   2  1
406  0  2   6 117   1  0
407  0  0   3 116   2  1
408  0  2   6 115   1  0
409  0  0   3 114   2  1
410  0  2   6 113   1  0
411  0  0   3 112   2  1
412  0  2   6 111   1  0
413  0  0   3 110   2  1
414  0  2   6 109   1  0
415  0  0   3 108   2  1
416  0  2   6 107   1  0
417  0  0   3 106   2  1
418  0  2   6 105   1  0
419  0  0   3 104   2  1
420  0  2   6 103   1  0
421  0  0   3 102   2  1
422  0  2   6 101   1  0
423  0  0   3 100   2  1
424  0  2   6  99   1  0
425  0  0   3  98   2  1
426  0  2   6  97   1  0
427  0  0   3  96   2  1
428  0  2   6  95   1  0
429  0  0   3  94   2  1
430  0  2   6  93   1  0
431  0  0   3  92   2  1
432  0  2   6  91   1  0
433  0  0   3  90   2  1
434  0  2   6  89   1  0
435  0  0   3  88   2  1
436  0  2   6  87   1  0
437  0  0   3  86   2  1
438  0  2   6  85   1  0
439  0  0   3  84   2  1
440  0  2   6  83   1  0
441  0  0   3  82   2  1
442  0  2   6  81   1  0
443  0  0   3  80   2  1
444  0  2   6  79   1  0
445  0  0   3  78   2  1
446  0  2   6  77   1  0
447  0  0   3  76   2  1
448  0  2   6  75   1  0
449  0  0   3  74   2  1
450  0  2   6  73   1  0
451  0  0   3  72   2  1
452  0  2   6  71   1  0
453  0  0   3  70   2  1
454  0  2   6  69   1  0
455  0  0   3  68   2  1
456  0  2   6  67   1  0
457  0  0   3  66   2  1
458  0  2   6  65   1  0
459  0  0   3  64   2  1
460  0  2   6  63   1  0
461  0  0   3  62   2  1
462  0  2   6  61   1  0
463  0  0   3  60   2  1
464  0  2   6  59   1  0
465  0  0   3  58   2  1
466  0  2   6  57   1  0
467  0  0   3  56   2  1
468  0  2   6  55   1  0
469  0  0   3  54   2  1
470  0  2   6  53   1  0
471  0  0   3  52   2  1
472  0  2   6  51   1  0
473  0  0   3  50   2  1
474  0  2   6  49   1  0
475  0  0   3  48   2  1
476  0  2   6  47   1  0
477  0  0   3  46   2  1
478  0  2   6  45   1  0
479  0  0   3  44   2  1
480  0  2   6  43   1  0
481  0  0   3  42   2  1
482  0  2   6  41   1  0
483  0  0   3  40   2  1
484  0  2   6  39   1  0
485  0  0   3  38   2  1
486  0  2   6  37   1  0
487  0  0   3  36   2  1
488  0  2   6  35   1  0
489  0  0   3  34   2  1
490  0  2   6  33   1  0
491  0  0   3  32   2  1
492  0  2   6  31   1  0
493  0  0   3  30   2  1
494  0  2   6  29   1  0
495  0  0   3  28   2  1
496  0  2   6  27   1  0
497  0  0   3  26   2  1
498  0  2   6  25   1  0
499  0  0   3  24   2  1
500  0  2   6  23   1  0
501  0  0   3  22   2  1
502  0  2   6  21   1  0
503  0  0   3  20   2  1
504  0  2   6  19   1  0
505  0  0   3  18   2  1
506  0  2   6  17   1  0
507  0  0   3  16   2  1
508  0  2   6  15   1  0
509  0  0   3  14   2  1
510  0  2   6  13   1  0
511  0  0   3  12   2  1
512  0  2   6  11   1  0
513  0  0   3  10   2  1
514  0  2   6   9   1  0
515  0  0   3   8   2  1
516  0  0   6   0   0  0

# Format of RF events:
# id amplitude mag_id phase_id delay freq phase
# ..        Hz   ....     ....    us   Hz   rad
[RF]
1       234.34 1 2 620 0 0
2      468.681 1 2 620 0 0

# Format of arbitrary gradients:
# id amplitude shape_id delay
# ..      Hz/m     ....    us
[GRADIENTS]
1       893066 3 310
2       893066 4 0
3      1.5e+06 5 0
6      1.5e+06 6 0

# Format of trapezoid gradients:
# id amplitude rise flat fall delay
# ..      Hz/m   us   us   us    us
[TRAP]
 4 -1.00313e+06 140  440 140   0
 5  1.00313e+06 140  440 140   0
 7      -995298 140  440 140   0
 8       995298 140  440 140   0
 9      -987461 140  440 140   0
10       987461 140  440 140   0
11      -979624 140  440 140   0
12       979624 140  440 140   0
13      -971787 140  440 140   0
14       971787 140  440 140   0
15      -963950 140  440 140   0
16       963950 140  440 140   0
17      -939908 130  460 130   0
18       939908 130  460 130   0
19      -932203 130  460 130   0
20       932203 130  460 130   0
21      -924499 130  460 130   0
22       924499 130  460 130   0
23      -916795 130  460 130   0
24       916795 130  460 130   0
25      -909091 130  460 130   0
26       909091 130  460 130   0
27      -901387 130  460 130   0
28       901387 130  460 130   0
29      -893683 130  460 130   0
30       893683 130  460 130   0
31      -885978 130  460 130   0
32       885978 130  460 130   0
33      -863636 120  480 120   0
34       863636 120  480 120   0
35      -856061 120  480 120   0
36       856061 120  480 120   0
37      -848485 120  480 120   0
38       848485 120  480 120   0
39      -840909 120  480 120   0
40       840909 120  480 120   0
41      -833333 120  480 120   0
42       833333 120  480 120   0
43      -825758 120  480 120   0
44       825758 120  480 120   0
45      -818182 120  480 120   0
46       818182 120  480 120   0
47      -810606 120  480 120   0
48       810606 120  480 120   0
49      -789866 110  500 110   0
50       789866 110  500 110   0
51      -782414 110  500 110   0
52       782414 110  500 110   0
53      -774963 110  500 110   0
54       774963 110  500 110   0
55      -767511 110  500 110   0
56       767511 110  500 110   0
57      -760060 110  500 110   0
58       760060 110  500 110   0
59      -752608 110  500 110   0
60       752608 110  500 110   0
61      -745156 110  500 110   0
62       745156 110  500 110   0
63      -737705 110  500 110   0
64       737705 110  500 110   0
65      -718475 100  520 100   0
66       718475 100  520 100   0
67      -711144 100  520 100   0
68       711144 100  520 100   0
69      -703812 100  520 100   0
70       703812 100  520 100   0
71      -696481 100  520 100   0
72       696481 100  520 100   0
73      -689150 100  520 100   0
74       689150 100  520 100   0
75      -681818 100  520 100   0
76       681818 100  520 100   0
77      -674487 100  520 100   0
78       674487 100  520 100   0
79      -667155 100  520 100   0
80       667155 100  520 100   0
81      -649351  90  540  90   0
82       649351  90  540  90   0
83      -642136  90  540  90   0
84       642136  90  540  90   0
85      -634921  90  540  90   0
86       634921  90  540  90   0
87      -627706  90  540  90   0
88       627706  90  540  90   0
89      -620491  90  540  90   0
90       620491  90  540  90   0
91      -613276  90  540  90   0
92       613276  90  540  90   0
93      -606061  90  540  90   0
94       606061  90  540  90   0
95      -598846  90  540  90   0
96       598846  90  540  90   0
97      -591631  90  540  90   0
98       591631  90  540  90   0
99      -575284  80  560  80   0
100       575284  80  560  80   0
101      -568182  80  560  80   0
102       568182  80  560  80   0
103      -561080  80  560  80   0
104       561080  80  560  80   0
105      -553977  80  560  80   0
106       553977  80  560  80   0
107      -546875  80  560  80   0
108       546875  80  560  80   0
109      -539773  80  560  80   0
110       539773  80  560  80   0
111      -532670  80  560  80   0
112       532670  80  560  80   0
113      -525568  80  560  80   0
114       525568  80  560  80   0
115      -518466  80  560  80   0
116       518466  80  560  80   0
117      -503497  70  580  70   0
118       503497  70  580  70   0
119      -496503  70  580  70   0
120       496503  70  580  70   0
121      -489510  70  580  70   0
122       489510  70  580  70   0
123      -482517  70  580  70   0
124       482517  70  580  70   0
125      -475524  70  580  70   0
126       475524  70  580  70   0
127      -468531  70  580  70   0
128       468531  70  580  70   0
129      -461538  70  580  70   0
130       461538  70  580  70   0
131      -454545  70  580  70   0
132       454545  70  580  70   0
133      -447552  70  580  70   0
134       447552  70  580  70   0
135      -433884  60  600  60   0
136       433884  60  600  60   0
137      -426997  60  600  60   0
138       426997  60  600  60   0
139      -420110  60  600  60   0
140       420110  60  600  60   0
141      -413223  60  600  60   0
142       413223  60  600  60   0
143      -406336  60  600  60   0
144       406336  60  600  60   0
145      -399449  60  600  60   0
146       399449  60  600  60   0
147      -392562  60  600  60   0
148       392562  60  600  60   0
149      -385675  60  600  60   0
150       385675  60  600  60   0
151      -378788  60  600  60   0
152       378788  60  600  60   0
153      -371901  60  600  60   0
154       371901  60  600  60   0
155      -359566  50  620  50   0
156       359566  50  620  50   0
157      -352782  50  620  50   0
158       352782  50  620  50   0
159      -345997  50  620  50   0
160       345997  50  620  50   0
161      -339213  50  620  50   0
162       339213  50  620  50   0
163      -332429  50  620  50   0
164       332429  50  620  50   0
165      -325645  50  620  50   0
166       325645  50  620  50   0
167      -318860  50  620  50   0
168       318860  50  620  50   0
169      -312076  50  620  50   0
170       312076  50  620  50   0
171      -305292  50  620  50   0
172       305292  50  620  50   0
173      -298507  50  620  50   0
174       298507  50  620  50   0
175      -287433  40  640  40   0
176       287433  40  640  40   0
177      -280749  40  640  40   0
178       280749  40  640  40   0
179      -274064  40  640  40   0
180       274064  40  640  40   0
181      -267380  40  640  40   0
182       267380  40  640  40   0
183      -260695  40  640  40   0
184       260695  40  640  40   0
185      -254011  40  640  40   0
186       254011  40  640  40   0
187      -247326  40  640  40   0
188       247326  40  640  40   0
189      -240642  40  640  40   0
190       240642  40  640  40   0
191      -233957  40  640  40   0
192       233957  40  640  40   0
193      -227273  40  640  40   0
194       227273  40  640  40   0
195      -220588  40  640  40   0
196       220588  40  640  40   0
197      -210804  30  660  30   0
198       210804  30  660  30   0
199      -204216  30  660  30   0
200       204216  30  660  30   0
201      -197628  30  660  30   0
202       197628  30  660  30   0
203      -191041  30  660  30   0
204       191041  30  660  30   0
205      -184453  30  660  30   0
206       184453  30  660  30   0
207      -177866  30  660  30   0
208       177866  30  660  30   0
209      -171278  30  660  30   0
210       171278  30  660  30   0
211      -164690  30  660  30   0
212       164690  30  660  30   0
213      -158103  30  660  30   0
214       158103  30  660  30   0
215      -151515  30  660  30   0
216       151515  30  660  30   0
217      -142857  20  680  20   0
218       142857  20  680  20   0
219      -136364  20  680  20   0
220       136364  20  680  20   0
221      -129870  20  680  20   0
222       129870  20  680  20   0
223      -123377  20  680  20   0
224       123377  20  680  20   0
225      -116883  20  680  20   0
226       116883  20  680  20   0
227      -110390  20  680  20   0
228       110390  20  680  20   0
229      -103896  20  680  20   0
230       103896  20  680  20   0
231     -97402.6  20  680  20   0
232      97402.6  20  680  20   0
233     -90909.1  20  680  20   0
234      90909.1  20  680  20   0
235     -84415.6  20  680  20   0
236      84415.6  20  680  20   0
237     -77922.1  20  680  20   0
238      77922.1  20  680  20   0
239     -70422.5  10  700  10   0
240      70422.5  10  700  10   0
241     -64020.5  10  700  10   0
242      64020.5  10  700  10   0
243     -57618.4  10  700  10   0
244      57618.4  10  700  10   0
245     -51216.4  10  700  10   0
246      51216.4  10  700  10   0
247     -44814.3  10  700  10   0
248      44814.3  10  700  10   0
249     -38412.3  10  700  10   0
250      38412.3  10  700  10   0
251     -32010.2  10  700  10   0
252      32010.2  10  700  10   0
253     -25608.2  10  700  10   0
254      25608.2  10  700  10   0
255     -19206.1  10  700  10   0
256      19206.1  10  700  10   0
257     -12804.1  10  700  10   0
258      12804.1  10  700  10   0
259     -6402.05  10  700  10   0
260      6402.05  10  700  10   0
261            0   0  720   0   0
262           -0   0  720   0   0

# Format of ADC events:
# id num dwell delay freq phase
# ..  ..    ns    us   Hz   rad
[ADC]
1 256 10000 740 0 0

# Format of delays:
# id delay (us)
[DELAYS]
1 650

# Sequence Shapes
[SHAPES]

shape_id 1
num_samples 620
0
0
98
2.52328e-05
7.60955e-05
0.000127546
0.000179573
0.000232167
0.000285316
0.000339009
0.000393234
0.000447981
0.000503237
0.000558991
0.00061523
0.000671942
0.000729115
0.000786736
0.000844792
0.00090327
0.000962157
0.00102144
0.00108111
0.00114114
0.00120153
0.00126226
0.00132332
0.00138469
0.00144636
0.00150831
0.00157053
0.00163301
0.00169573
0.00175867
0.00182182
0.00188517
0.0019487
0.00201239
0.00207623
0.00214021
0.0022043
0.0022685
0.00233278
0.00239713
0.00246153
0.00252598
0.00259044
0.00265491
0.00271938
0.00278381
0.0028482
0.00291254
0.0029768
0.00304096
0.00310502
0.00316895
0.00323274
0.00329638
0.00335984
0.0034231
0.00348616
0.003549
0.00361159
0.00367393
0.003736
0.00379777
0.00385924
0.00392038
0.00398118
0.00404163
0.0041017
0.00416139
0.00422067
0.00427953
0.00433795
0.00439592
0.00445341
0.00451043
0.00456694
0.00462293
0.00467839
0.0047333
0.00478764
0.00484141
0.00489458
0.00494714
0.00499908
0.00505037
0.00510101
0.00515097
0.00520026
0.00524884
0.00529671
0.00534385
0.00539025
0.00543589
0.00548076
0.00552485
0.00556814
0.00561062
0.00565227
0.00569309
0.00573306
0.00577217
0.0058104
0.00584774
0.00588419
0.00591972
0.00595433
0.00598801
0.00602074
0.00605251
0.00608331
0.00611314
0.00614198
0.00616982
0.00619665
0.00622245
0.00624724
0.00627098
0.00629367
0.00631531
0.00633589
0.00635539
0.00637381
0.00639114
0.00640737
0.0064225
0.00643651
0.00644941
0.00646119
0.00647183
0.00648133
0.00648969
0.0064969
0.00650296
0.00650785
0.00651159
0.00651415
0.00651554
0.00651575
0.00651478
0.00651263
0.00650929
0.00650476
0.00649903
0.00649211
0.006484
0.00647468
0.00646417
0.00645245
0.00643953
0.0064254
0.00641008
0.00639355
0.00637582
0.00635688
0.00633674
0.00631541
0.00629287
0.00626914
0.00624421
0.00621808
0.00619077
0.00616227
0.00613259
0.00610172
0.00606968
0.00603647
0.00600209
0.00596654
0.00592983
0.00589197
0.00585297
0.00581281
0.00577153
0.00572911
0.00568557
0.00564091
0.00559514
0.00554827
0.00550031
0.00545126
0.00540113
0.00534993
0.00529767
0.00524436
0.00519
0.00513462
0.0050782
0.00502078
0.00496235
0.00490293
0.00484253
0.00478116
0.00471883
0.00465555
0.00459133
0.00452619
0.00446014
0.00439319
0.00432536
0.00425665
0.00418707
0.00411666
0.0040454
0.00397333
0.00390045
0.00382679
0.00375234
0.00367713
0.00360117
0.00352448
0.00344707
0.00336896
0.00329016
0.00321069
0.00313056
0.0030498
0.00296841
0.00288641
0.00280382
0.00272066
0.00263694
0.00255268
0.0024679
0.00238261
0.00229683
0.00221058
0.00212387
0.00203673
0.00194917
0.00186121
0.00177287
0.00168416
0.0015951
0.00150572
0.00141603
0.00132604
0.00123578
0.00114527
0.00105452
0.000963549
0.000872383
0.000781037
0.00068953
0.000597881
0.000506108
0.000414231
0.000322268
0.000230239
0.000138163
4.60574e-05
-4.60574e-05
-0.000138163
-0.000230239
-0.000322268
-0.000414231
-0.000506108
-0.000597881
-0.00068953
-0.000781037
-0.000872383
-0.000963549
-0.00105452
-0.00114527
-0.00123578
-0.00132604
-0.00141603
-0.00150572
-0.0015951
-0.00168416
-0.00177287
-0.00186121
-0.00194917
-0.00203673
-0.00212387
-0.00221058
-0.00229683
-0.00238261
-0.0024679
-0.00255268
-0.00263694
-0.00272066
-0.00280382
-0.00288641
-0.00296841
-0.0030498
-0.00313056
-0.00321069
-0.00329016
-0.00336896
-0.00344707
-0.00352448
-0.00360117
-0.00367713
-0.00375234
-0.00382679
-0.00390045
-0.00397333
-0.0040454
-0.00411666
-0.00418707
-0.00425665
-0.00432536
-0.00439319
-0.00446014
-0.00452619
-0.00459133
-0.00465555
-0.00471883
-0.00478116
-0.00484253
-0.00490293
-0.00496235
-0.00502078
-0.0050782
-0.00513462
-0.00519
-0.00524436
-0.00529767
-0.00534993
-0.00540113
-0.00545126
-0.00550031
-0.00554827
-0.00559514
-0.00564091
-0.00568557
-0.00572911
-0.00577153
-0.00581281
-0.00585297
-0.00589197
-0.00592983
-0.00596654
-0.00600209
-0.00603647
-0.00606968
-0.00610172
-0.00613259
-0.00616227
-0.00619077
-0.00621808
-0.00624421
-0.00626914
-0.00629287
-0.00631541
-0.00633674
-0.00635688
-0.00637582
-0.00639355
-0.00641008
-0.0064254
-0.00643953
-0.00645245
-0.00646417
-0.00647468
-0.006484
-0.00649211
-0.00649903
-0.00650476
-0.00650929
-0.00651263
-0.00651478
-0.00651575
-0.00651554
-0.00651415
-0.00651159
-0.00650785
-0.00650296
-0.0064969
-0.00648969
-0.00648133
-0.00647183
-0.00646119
-0.00644941
-0.00643651
-0.0064225
-0.00640737
-0.00639114
-0.00637381
-0.00635539
-0.00633589
-0.00631531
-0.00629367
-0.00627098
-0.00624724
-0.00622245
-0.00619665
-0.00616982
-0.00614198
-0.00611314
-0.00608331
-0.00605251
-0.00602074
-0.00598801
-0.00595433
-0.00591972
-0.00588419
-0.00584774
-0.0058104
-0.00577217
-0.00573306
-0.00569309
-0.00565227
-0.00561062
-0.00556814
-0.00552485
-0.00548076
-0.00543589
-0.00539025
-0.00534385
-0.00529671
-0.00524884
-0.00520026
-0.00515097
-0.00510101
-0.00505037
-0.00499908
-0.00494714
-0.00489458
-0.00484141
-0.00478764
-0.0047333
-0.00467839
-0.00462293
-0.00456694
-0.00451043
-0.00445341
-0.00439592
-0.00433795
-0.00427953
-0.00422067
-0.00416139
-0.0041017
-0.00404163
-0.00398118
-0.00392038
-0.00385924
-0.00379777
-0.003736
-0.00367393
-0.00361159
-0.003549
-0.00348616
-0.0034231
-0.00335984
-0.00329638
-0.00323274
-0.00316895
-0.00310502
-0.00304096
-0.0029768
-0.00291254
-0.0028482
-0.00278381
-0.00271938
-0.00265491
-0.00259044
-0.00252598
-0.00246153
-0.00239713
-0.00233278
-0.0022685
-0.0022043
-0.00214021
-0.00207623
-0.00201239
-0.0019487
-0.00188517
-0.00182182
-0.00175867
-0.00169573
-0.00163301
-0.00157053
-0.00150831
-0.00144636
-0.00138469
-0.00132332
-0.00126226
-0.00120153
-0.00114114
-0.00108111
-0.00102144
-0.000962157
-0.00090327
-0.000844792
-0.000786736
-0.000729115
-0.000671942
-0.00061523
-0.000558991
-0.000503237
-0.000447981
-0.000393234
-0.000339009
-0.000285316
-0.000232167
-0.000179573
-0.000127546
-7.60955e-05
-2.52328e-05
0
0
18

shape_id 2
num_samples 620
0
0
618

shape_id 3
num_samples 93
-0.0322581
-0.0645161
-0.0645161
13
0
0.0645161
0.0645161
13
0.0633619
0.0622076
0.0622076
6
0.0311038
0
0
47
-0.0311038
-0.0622076

shape_id 4
num_samples 39
0.40435
-0.0622076
-0.0622076
4
-0.0633619
-0.0645161
-0.0645161
13
0
0.0645161
0.0645161
13

shape_id 5
num_samples 332
-0.0192308
-0.0384615
-0.0384615
23
-0.0192308
0
0
11
0.0192308
0.0384615
0.0384615
23
0.0381702
0.0378788
0.0378788
5
0.0189394
0
0
253
-0.0189394
-0.0378788

shape_id 6
num_samples 72
0.208333
-0.0378788
-0.0378788
3
-0.0381702
-0.0384615
-0.0384615
23
-0.0192308
0
0
11
0.0192308
0.0384615
0.0384615
23

