# Pulseq sequence file
# Created by MATLAB mr toolbox

[VERSION]
major 1
minor 3
revision 0

[DEFINITIONS]
FOV 0.22 0.22 0.004 
Name trufi 
TotalDuration 1.19601 

# Format of blocks:
#  #  D RF  GX  GY  GZ ADC EXT
[BLOCKS]
  1  0  1   0   0   1  0  0
  2  0  0   0   0   2  0  0
  3  1  0   0   0   0  0  0
  4  0  2   0   0   1  0  0
  5  0  0   3   4   2  1  0
  6  0  2   6   5   1  0  0
  7  0  0   3   7   2  1  0
  8  0  2   6   8   1  0  0
  9  0  0   3   9   2  1  0
 10  0  2   6  10   1  0  0
 11  0  0   3  11   2  1  0
 12  0  2   6  12   1  0  0
 13  0  0   3  13   2  1  0
 14  0  2   6  14   1  0  0
 15  0  0   3  15   2  1  0
 16  0  2   6  16   1  0  0
 17  0  0   3  17   2  1  0
 18  0  2   6  18   1  0  0
 19  0  0   3  19   2  1  0
 20  0  2   6  20   1  0  0
 21  0  0   3  21   2  1  0
 22  0  2   6  22   1  0  0
 23  0  0   3  23   2  1  0
 24  0  2   6  24   1  0  0
 25  0  0   3  25   2  1  0
 26  0  2   6  26   1  0  0
 27  0  0   3  27   2  1  0
 28  0  2   6  28   1  0  0
 29  0  0   3  29   2  1  0
 30  0  2   6  30   1  0  0
 31  0  0   3  31   2  1  0
 32  0  2   6  32   1  0  0
 33  0  0   3  33   2  1  0
 34  0  2   6  34   1  0  0
 35  0  0   3  35   2  1  0
 36  0  2   6  36   1  0  0
 37  0  0   3  37   2  1  0
 38  0  2   6  38   1  0  0
 39  0  0   3  39   2  1  0
 40  0  2   6  40   1  0  0
 41  0  0   3  41   2  1  0
 42  0  2   6  42   1  0  0
 43  0  0   3  43   2  1  0
 44  0  2   6  44   1  0  0
 45  0  0   3  45   2  1  0
 46  0  2   6  46   1  0  0
 47  0  0   3  47   2  1  0
 48  0  2   6  48   1  0  0
 49  0  0   3  49   2  1  0
 50  0  2   6  50   1  0  0
 51  0  0   3  51   2  1  0
 52  0  2   6  52   1  0  0
 53  0  0   3  53   2  1  0
 54  0  2   6  54   1  0  0
 55  0  0   3  55   2  1  0
 56  0  2   6  56   1  0  0
 57  0  0   3  57   2  1  0
 58  0  2   6  58   1  0  0
 59  0  0   3  59   2  1  0
 60  0  2   6  60   1  0  0
 61  0  0   3  61   2  1  0
 62  0  2   6  62   1  0  0
 63  0  0   3  63   2  1  0
 64  0  2   6  64   1  0  0
 65  0  0   3  65   2  1  0
 66  0  2   6  66   1  0  0
 67  0  0   3  67   2  1  0
 68  0  2   6  68   1  0  0
 69  0  0   3  69   2  1  0
 70  0  2   6  70   1  0  0
 71  0  0   3  71   2  1  0
 72  0  2   6  72   1  0  0
 73  0  0   3  73   2  1  0
 74  0  2   6  74   1  0  0
 75  0  0   3  75   2  1  0
 76  0  2   6  76   1  0  0
 77  0  0   3  77   2  1  0
 78  0  2   6  78   1  0  0
 79  0  0   3  79   2  1  0
 80  0  2   6  80   1  0  0
 81  0  0   3  81   2  1  0
 82  0  2   6  82   1  0  0
 83  0  0   3  83   2  1  0
 84  0  2   6  84   1  0  0
 85  0  0   3  85   2  1  0
 86  0  2   6  86   1  0  0
 87  0  0   3  87   2  1  0
 88  0  2   6  88   1  0  0
 89  0  0   3  89   2  1  0
 90  0  2   6  90   1  0  0
 91  0  0   3  91   2  1  0
 92  0  2   6  92   1  0  0
 93  0  0   3  93   2  1  0
 94  0  2   6  94   1  0  0
 95  0  0   3  95   2  1  0
 96  0  2   6  96   1  0  0
 97  0  0   3  97   2  1  0
 98  0  2   6  98   1  0  0
 99  0  0   3  99   2  1  0
100  0  2   6 100   1  0  0
101  0  0   3 101   2  1  0
102  0  2   6 102   1  0  0
103  0  0   3 103   2  1  0
104  0  2   6 104   1  0  0
105  0  0   3 105   2  1  0
106  0  2   6 106   1  0  0
107  0  0   3 107   2  1  0
108  0  2   6 108   1  0  0
109  0  0   3 109   2  1  0
110  0  2   6 110   1  0  0
111  0  0   3 111   2  1  0
112  0  2   6 112   1  0  0
113  0  0   3 113   2  1  0
114  0  2   6 114   1  0  0
115  0  0   3 115   2  1  0
116  0  2   6 116   1  0  0
117  0  0   3 117   2  1  0
118  0  2   6 118   1  0  0
119  0  0   3 119   2  1  0
120  0  2   6 120   1  0  0
121  0  0   3 121   2  1  0
122  0  2   6 122   1  0  0
123  0  0   3 123   2  1  0
124  0  2   6 124   1  0  0
125  0  0   3 125   2  1  0
126  0  2   6 126   1  0  0
127  0  0   3 127   2  1  0
128  0  2   6 128   1  0  0
129  0  0   3 129   2  1  0
130  0  2   6 130   1  0  0
131  0  0   3 131   2  1  0
132  0  2   6 132   1  0  0
133  0  0   3 133   2  1  0
134  0  2   6 134   1  0  0
135  0  0   3 135   2  1  0
136  0  2   6 136   1  0  0
137  0  0   3 137   2  1  0
138  0  2   6 138   1  0  0
139  0  0   3 139   2  1  0
140  0  2   6 140   1  0  0
141  0  0   3 141   2  1  0
142  0  2   6 142   1  0  0
143  0  0   3 143   2  1  0
144  0  2   6 144   1  0  0
145  0  0   3 145   2  1  0
146  0  2   6 146   1  0  0
147  0  0   3 147   2  1  0
148  0  2   6 148   1  0  0
149  0  0   3 149   2  1  0
150  0  2   6 150   1  0  0
151  0  0   3 151   2  1  0
152  0  2   6 152   1  0  0
153  0  0   3 153   2  1  0
154  0  2   6 154   1  0  0
155  0  0   3 155   2  1  0
156  0  2   6 156   1  0  0
157  0  0   3 157   2  1  0
158  0  2   6 158   1  0  0
159  0  0   3 159   2  1  0
160  0  2   6 160   1  0  0
161  0  0   3 161   2  1  0
162  0  2   6 162   1  0  0
163  0  0   3 163   2  1  0
164  0  2   6 164   1  0  0
165  0  0   3 165   2  1  0
166  0  2   6 166   1  0  0
167  0  0   3 167   2  1  0
168  0  2   6 168   1  0  0
169  0  0   3 169   2  1  0
170  0  2   6 170   1  0  0
171  0  0   3 171   2  1  0
172  0  2   6 172   1  0  0
173  0  0   3 173   2  1  0
174  0  2   6 174   1  0  0
175  0  0   3 175   2  1  0
176  0  2   6 176   1  0  0
177  0  0   3 177   2  1  0
178  0  2   6 178   1  0  0
179  0  0   3 179   2  1  0
180  0  2   6 180   1  0  0
181  0  0   3 181   2  1  0
182  0  2   6 182   1  0  0
183  0  0   3 183   2  1  0
184  0  2   6 184   1  0  0
185  0  0   3 185   2  1  0
186  0  2   6 186   1  0  0
187  0  0   3 187   2  1  0
188  0  2   6 188   1  0  0
189  0  0   3 189   2  1  0
190  0  2   6 190   1  0  0
191  0  0   3 191   2  1  0
192  0  2   6 192   1  0  0
193  0  0   3 193   2  1  0
194  0  2   6 194   1  0  0
195  0  0   3 195   2  1  0
196  0  2   6 196   1  0  0
197  0  0   3 197   2  1  0
198  0  2   6 198   1  0  0
199  0  0   3 199   2  1  0
200  0  2   6 200   1  0  0
201  0  0   3 201   2  1  0
202  0  2   6 202   1  0  0
203  0  0   3 203   2  1  0
204  0  2   6 204   1  0  0
205  0  0   3 205   2  1  0
206  0  2   6 206   1  0  0
207  0  0   3 207   2  1  0
208  0  2   6 208   1  0  0
209  0  0   3 209   2  1  0
210  0  2   6 210   1  0  0
211  0  0   3 211   2  1  0
212  0  2   6 212   1  0  0
213  0  0   3 213   2  1  0
214  0  2   6 214   1  0  0
215  0  0   3 215   2  1  0
216  0  2   6 216   1  0  0
217  0  0   3 217   2  1  0
218  0  2   6 218   1  0  0
219  0  0   3 219   2  1  0
220  0  2   6 220   1  0  0
221  0  0   3 221   2  1  0
222  0  2   6 222   1  0  0
223  0  0   3 223   2  1  0
224  0  2   6 224   1  0  0
225  0  0   3 225   2  1  0
226  0  2   6 226   1  0  0
227  0  0   3 227   2  1  0
228  0  2   6 228   1  0  0
229  0  0   3 229   2  1  0
230  0  2   6 230   1  0  0
231  0  0   3 231   2  1  0
232  0  2   6 232   1  0  0
233  0  0   3 233   2  1  0
234  0  2   6 234   1  0  0
235  0  0   3 235   2  1  0
236  0  2   6 236   1  0  0
237  0  0   3 237   2  1  0
238  0  2   6 238   1  0  0
239  0  0   3 239   2  1  0
240  0  2   6 240   1  0  0
241  0  0   3 241   2  1  0
242  0  2   6 242   1  0  0
243  0  0   3 243   2  1  0
244  0  2   6 244   1  0  0
245  0  0   3 245   2  1  0
246  0  2   6 246   1  0  0
247  0  0   3 247   2  1  0
248  0  2   6 248   1  0  0
249  0  0   3 249   2  1  0
250  0  2   6 250   1  0  0
251  0  0   3 251   2  1  0
252  0  2   6 252   1  0  0
253  0  0   3 253   2  1  0
254  0  2   6 254   1  0  0
255  0  0   3 255   2  1  0
256  0  2   6 256   1  0  0
257  0  0   3 257   2  1  0
258  0  2   6 258   1  0  0
259  0  0   3 259   2  1  0
260  0  2   6 260   1  0  0
261  0  0   3 261   2  1  0
262  0  2   6 262   1  0  0
263  0  0   3 260   2  1  0
264  0  2   6 259   1  0  0
265  0  0   3 258   2  1  0
266  0  2   6 257   1  0  0
267  0  0   3 256   2  1  0
268  0  2   6 255   1  0  0
269  0  0   3 254   2  1  0
270  0  2   6 253   1  0  0
271  0  0   3 252   2  1  0
272  0  2   6 251   1  0  0
273  0  0   3 250   2  1  0
274  0  2   6 249   1  0  0
275  0  0   3 248   2  1  0
276  0  2   6 247   1  0  0
277  0  0   3 246   2  1  0
278  0  2   6 245   1  0  0
279  0  0   3 244   2  1  0
280  0  2   6 243   1  0  0
281  0  0   3 242   2  1  0
282  0  2   6 241   1  0  0
283  0  0   3 240   2  1  0
284  0  2   6 239   1  0  0
285  0  0   3 238   2  1  0
286  0  2   6 237   1  0  0
287  0  0   3 236   2  1  0
288  0  2   6 235   1  0  0
289  0  0   3 234   2  1  0
290  0  2   6 233   1  0  0
291  0  0   3 232   2  1  0
292  0  2   6 231   1  0  0
293  0  0   3 230   2  1  0
294  0  2   6 229   1  0  0
295  0  0   3 228   2  1  0
296  0  2   6 227   1  0  0
297  0  0   3 226   2  1  0
298  0  2   6 225   1  0  0
299  0  0   3 224   2  1  0
300  0  2   6 223   1  0  0
301  0  0   3 222   2  1  0
302  0  2   6 221   1  0  0
303  0  0   3 220   2  1  0
304  0  2   6 219   1  0  0
305  0  0   3 218   2  1  0
306  0  2   6 217   1  0  0
307  0  0   3 216   2  1  0
308  0  2   6 215   1  0  0
309  0  0   3 214   2  1  0
310  0  2   6 213   1  0  0
311  0  0   3 212   2  1  0
312  0  2   6 211   1  0  0
313  0  0   3 210   2  1  0
314  0  2   6 209   1  0  0
315  0  0   3 208   2  1  0
316  0  2   6 207   1  0  0
317  0  0   3 206   2  1  0
318  0  2   6 205   1  0  0
319  0  0   3 204   2  1  0
320  0  2   6 203   1  0  0
321  0  0   3 202   2  1  0
322  0  2   6 201   1  0  0
323  0  0   3 200   2  1  0
324  0  2   6 199   1  0  0
325  0  0   3 198   2  1  0
326  0  2   6 197   1  0  0
327  0  0   3 196   2  1  0
328  0  2   6 195   1  0  0
329  0  0   3 194   2  1  0
330  0  2   6 193   1  0  0
331  0  0   3 192   2  1  0
332  0  2   6 191   1  0  0
333  0  0   3 190   2  1  0
334  0  2   6 189   1  0  0
335  0  0   3 188   2  1  0
336  0  2   6 187   1  0  0
337  0  0   3 186   2  1  0
338  0  2   6 185   1  0  0
339  0  0   3 184   2  1  0
340  0  2   6 183   1  0  0
341  0  0   3 182   2  1  0
342  0  2   6 181   1  0  0
343  0  0   3 180   2  1  0
344  0  2   6 179   1  0  0
345  0  0   3 178   2  1  0
346  0  2   6 177   1  0  0
347  0  0   3 176   2  1  0
348  0  2   6 175   1  0  0
349  0  0   3 174   2  1  0
[RF]
1      208.297 1 2 720 0 0
2      416.593 1 2 720 0 0

# Format of arbitrary gradients:
# id amplitude shape_id delay
# ..      Hz/m     ....    us
[GRADIENTS]
1  1.08164e+06 3 210
2  1.08164e+06 4 0
3      1.5e+06 5 0
6      1.5e+06 6 0

# Format of trapezoid gradients:
# id amplitude rise flat fall delay
# ..      Hz/m   us   us   us    us
[TRAP]
 4 -1.09777e+06 190  340 190   0
 5  1.09777e+06 190  340 190   0
 7 -1.06902e+06 180  360 180   0
 8  1.06902e+06 180  360 180   0
 9 -1.06061e+06 180  360 180   0
10  1.06061e+06 180  360 180   0
11 -1.05219e+06 180  360 180   0
12  1.05219e+06 180  360 180   0
13 -1.04377e+06 180  360 180   0
14  1.04377e+06 180  360 180   0
15 -1.03535e+06 180  360 180   0
16  1.03535e+06 180  360 180   0
17 -1.00826e+06 170  380 170   0
18  1.00826e+06 170  380 170   0
19       -1e+06 170  380 170   0
20        1e+06 170  380 170   0
21      -991736 170  380 170   0
22       991736 170  380 170   0
23      -983471 170  380 170   0
24       983471 170  380 170   0
25      -975207 170  380 170   0
26       975207 170  380 170   0
27      -949675 160  400 160   0
28       949675 160  400 160   0
29      -941558 160  400 160   0
30       941558 160  400 160   0
31      -933442 160  400 160   0
32       933442 160  400 160   0
33      -925325 160  400 160   0
34       925325 160  400 160   0
35      -917208 160  400 160   0
36       917208 160  400 160   0
37      -893142 150  420 150   0
38       893142 150  420 150   0
39      -885167 150  420 150   0
40       885167 150  420 150   0
41      -877193 150  420 150   0
42       877193 150  420 150   0
43      -869219 150  420 150   0
44       869219 150  420 150   0
45      -861244 150  420 150   0
46       861244 150  420 150   0
47      -853270 150  420 150   0
48       853270 150  420 150   0
49      -830721 140  440 140   0
50       830721 140  440 140   0
51      -822884 140  440 140   0
52       822884 140  440 140   0
53      -815047 140  440 140   0
54       815047 140  440 140   0
55      -807210 140  440 140   0
56       807210 140  440 140   0
57      -799373 140  440 140   0
58       799373 140  440 140   0
59      -791536 140  440 140   0
60       791536 140  440 140   0
61      -770416 130  460 130   0
62       770416 130  460 130   0
63      -762712 130  460 130   0
64       762712 130  460 130   0
65      -755008 130  460 130   0
66       755008 130  460 130   0
67      -747304 130  460 130   0
68       747304 130  460 130   0
69      -739599 130  460 130   0
70       739599 130  460 130   0
71      -731895 130  460 130   0
72       731895 130  460 130   0
73      -712121 120  480 120   0
74       712121 120  480 120   0
75      -704545 120  480 120   0
76       704545 120  480 120   0
77      -696970 120  480 120   0
78       696970 120  480 120   0
79      -689394 120  480 120   0
80       689394 120  480 120   0
81      -681818 120  480 120   0
82       681818 120  480 120   0
83      -674242 120  480 120   0
84       674242 120  480 120   0
85      -666667 120  480 120   0
86       666667 120  480 120   0
87      -648286 110  500 110   0
88       648286 110  500 110   0
89      -640835 110  500 110   0
90       640835 110  500 110   0
91      -633383 110  500 110   0
92       633383 110  500 110   0
93      -625931 110  500 110   0
94       625931 110  500 110   0
95      -618480 110  500 110   0
96       618480 110  500 110   0
97      -611028 110  500 110   0
98       611028 110  500 110   0
99      -593842 100  520 100   0
100       593842 100  520 100   0
101      -586510 100  520 100   0
102       586510 100  520 100   0
103      -579179 100  520 100   0
104       579179 100  520 100   0
105      -571848 100  520 100   0
106       571848 100  520 100   0
107      -564516 100  520 100   0
108       564516 100  520 100   0
109      -557185 100  520 100   0
110       557185 100  520 100   0
111      -549853 100  520 100   0
112       549853 100  520 100   0
113      -533911  90  540  90   0
114       533911  90  540  90   0
115      -526696  90  540  90   0
116       526696  90  540  90   0
117      -519481  90  540  90   0
118       519481  90  540  90   0
119      -512266  90  540  90   0
120       512266  90  540  90   0
121      -505051  90  540  90   0
122       505051  90  540  90   0
123      -497835  90  540  90   0
124       497835  90  540  90   0
125      -490620  90  540  90   0
126       490620  90  540  90   0
127      -475852  80  560  80   0
128       475852  80  560  80   0
129      -468750  80  560  80   0
130       468750  80  560  80   0
131      -461648  80  560  80   0
132       461648  80  560  80   0
133      -454545  80  560  80   0
134       454545  80  560  80   0
135      -447443  80  560  80   0
136       447443  80  560  80   0
137      -440341  80  560  80   0
138       440341  80  560  80   0
139      -433239  80  560  80   0
140       433239  80  560  80   0
141      -426136  80  560  80   0
142       426136  80  560  80   0
143      -412587  70  580  70   0
144       412587  70  580  70   0
145      -405594  70  580  70   0
146       405594  70  580  70   0
147      -398601  70  580  70   0
148       398601  70  580  70   0
149      -391608  70  580  70   0
150       391608  70  580  70   0
151      -384615  70  580  70   0
152       384615  70  580  70   0
153      -377622  70  580  70   0
154       377622  70  580  70   0
155      -370629  70  580  70   0
156       370629  70  580  70   0
157      -363636  70  580  70   0
158       363636  70  580  70   0
159      -351240  60  600  60   0
160       351240  60  600  60   0
161      -344353  60  600  60   0
162       344353  60  600  60   0
163      -337466  60  600  60   0
164       337466  60  600  60   0
165      -330579  60  600  60   0
166       330579  60  600  60   0
167      -323691  60  600  60   0
168       323691  60  600  60   0
169      -316804  60  600  60   0
170       316804  60  600  60   0
171      -309917  60  600  60   0
172       309917  60  600  60   0
173      -303030  60  600  60   0
174       303030  60  600  60   0
175      -291723  50  620  50   0
176       291723  50  620  50   0
177      -284939  50  620  50   0
178       284939  50  620  50   0
179      -278155  50  620  50   0
180       278155  50  620  50   0
181      -271370  50  620  50   0
182       271370  50  620  50   0
183      -264586  50  620  50   0
184       264586  50  620  50   0
185      -257802  50  620  50   0
186       257802  50  620  50   0
187      -251018  50  620  50   0
188       251018  50  620  50   0
189      -244233  50  620  50   0
190       244233  50  620  50   0
191      -233957  40  640  40   0
192       233957  40  640  40   0
193      -227273  40  640  40   0
194       227273  40  640  40   0
195      -220588  40  640  40   0
196       220588  40  640  40   0
197      -213904  40  640  40   0
198       213904  40  640  40   0
199      -207219  40  640  40   0
200       207219  40  640  40   0
201      -200535  40  640  40   0
202       200535  40  640  40   0
203      -193850  40  640  40   0
204       193850  40  640  40   0
205      -187166  40  640  40   0
206       187166  40  640  40   0
207      -177866  30  660  30   0
208       177866  30  660  30   0
209      -171278  30  660  30   0
210       171278  30  660  30   0
211      -164690  30  660  30   0
212       164690  30  660  30   0
213      -158103  30  660  30   0
214       158103  30  660  30   0
215      -151515  30  660  30   0
216       151515  30  660  30   0
217      -144928  30  660  30   0
218       144928  30  660  30   0
219      -138340  30  660  30   0
220       138340  30  660  30   0
221      -131752  30  660  30   0
222       131752  30  660  30   0
223      -125165  30  660  30   0
224       125165  30  660  30   0
225      -116883  20  680  20   0
226       116883  20  680  20   0
227      -110390  20  680  20   0
228       110390  20  680  20   0
229      -103896  20  680  20   0
230       103896  20  680  20   0
231     -97402.6  20  680  20   0
232      97402.6  20  680  20   0
233     -90909.1  20  680  20   0
234      90909.1  20  680  20   0
235     -84415.6  20  680  20   0
236      84415.6  20  680  20   0
237     -77922.1  20  680  20   0
238      77922.1  20  680  20   0
239     -71428.6  20  680  20   0
240      71428.6  20  680  20   0
241     -64935.1  20  680  20   0
242      64935.1  20  680  20   0
243     -57618.4  10  700  10   0
244      57618.4  10  700  10   0
245     -51216.4  10  700  10   0
246      51216.4  10  700  10   0
247     -44814.3  10  700  10   0
248      44814.3  10  700  10   0
249     -38412.3  10  700  10   0
250      38412.3  10  700  10   0
251     -32010.2  10  700  10   0
252      32010.2  10  700  10   0
253     -25608.2  10  700  10   0
254      25608.2  10  700  10   0
255     -19206.1  10  700  10   0
256      19206.1  10  700  10   0
257     -12804.1  10  700  10   0
258      12804.1  10  700  10   0
259     -6402.05  10  700  10   0
260      6402.05  10  700  10   0
261            0   0  720   0   0
262           -0   0  720   0   0

# Format of ADC events:
# id num dwell delay freq phase
# ..  ..    ns    us   Hz   rad
[ADC]
1 256 10000 740 0 0

# Format of delays:
# id delay (us)
[DELAYS]
1 500

# Sequence Shapes
[SHAPES]

shape_id 1
num_samples 620
8.3e-06
2.53e-05
4.29e-05
6.1e-05
7.97e-05
9.88e-05
0.0001186
0.000139
0.0001597
0.0001811
0.0002031
0.0002255
0.0002486
0.000272
0.0002961
0.0003207
0.0003458
0.0003715
0.0003976
0.0004243
0.0004514
0.0004792
0.0005073
0.000536
0.0005652
0.0005949
0.0006251
0.0006557
0.0006868
0.0007184
0.0007505
0.000783
0.0008159
0.0008495
0.0008832
0.0009176
0.0009524
0.0009875
0.0010231
0.0010592
0.0010955
0.0011324
0.0011695
0.0012072
0.0012452
0.0012834
0.0013223
0.0013612
0.0014007
0.0014405
0.0014806
0.0015209
0.0015618
0.0016027
0.0016442
0.0016857
0.0017277
0.0017699
0.0018124
0.001855
0.0018981
0.0019413
0.0019847
0.0020283
0.0020723
0.0021163
0.0021605
0.0022051
0.0022496
0.0022944
0.0023393
0.0023844
0.0024296
0.0024749
0.0025204
0.0025658
0.0026115
0.0026572
0.002703
0.0027488
0.0027946
0.0028406
0.0028865
0.0029324
0.0029784
0.0030243
0.0030702
0.0031161
0.003162
0.0032077
0.0032535
0.0032991
0.0033447
0.0033902
0.0034355
0.0034808
0.0035258
0.0035709
0.0036156
0.0036602
0.0037048
0.003749
0.003793
0.003837
0.0038805
0.003924
0.0039671
0.00401
0.0040526
0.0040949
0.0041371
0.0041787
0.0042202
0.0042613
0.0043021
0.0043425
0.0043825
0.0044223
0.0044615
0.0045005
0.0045389
0.0045771
0.0046147
0.004652
0.0046888
0.0047251
0.0047609
0.0047964
0.0048312
0.0048657
0.0048995
0.0049329
0.0049657
0.004998
0.0050298
0.005061
0.0050916
0.0051216
0.0051511
0.0051799
0.0052082
0.0052358
0.0052628
0.0052892
0.0053149
0.00534
0.0053644
0.0053881
0.0054112
0.0054337
0.0054552
0.0054763
0.0054966
0.0055161
0.005535
0.005553
0.0055705
0.005587
0.0056029
0.0056181
0.0056323
0.0056459
0.0056588
0.0056707
0.0056819
0.0056923
0.005702
0.0057107
0.0057187
0.0057259
0.0057323
0.0057377
0.0057424
0.0057463
0.0057492
0.0057514
0.0057527
0.0057532
0.0057527
0.0057515
0.0057493
0.0057463
0.0057424
0.0057376
0.0057321
0.0057255
0.0057181
0.0057099
0.0057007
0.0056906
0.0056798
0.0056679
0.0056552
0.0056416
0.0056271
0.0056118
0.0055954
0.0055784
0.0055602
0.0055413
0.0055215
0.0055008
0.0054792
0.0054566
0.0054333
0.005409
0.0053839
0.0053579
0.0053309
0.0053032
0.0052745
0.005245
0.0052146
0.0051834
0.0051512
0.0051183
0.0050844
0.0050498
0.0050143
0.0049779
0.0049407
0.0049027
0.0048638
0.0048242
0.0047837
0.0047423
0.0047003
0.0046573
0.0046137
0.0045692
0.0045239
0.0044779
0.004431
0.0043835
0.0043352
0.0042861
0.0042363
0.0041857
0.0041345
0.0040826
0.0040298
0.0039765
0.0039223
0.0038677
0.0038122
0.0037561
0.0036993
0.003642
0.0035839
0.0035252
0.003466
0.0034061
0.0033457
0.0032845
0.0032229
0.0031607
0.0030979
0.0030346
0.0029707
0.0029063
0.0028415
0.002776
0.0027102
0.0026438
0.002577
0.0025096
0.0024419
0.0023738
0.0023051
0.0022362
0.0021667
0.0020969
0.0020268
0.0019563
0.0018853
0.0018142
0.0017426
0.0016708
0.0015986
0.0015262
0.0014535
0.0013805
0.0013073
0.0012339
0.0011602
0.0010863
0.0010123
0.000938
0.0008636
0.000789
0.0007143
0.0006394
0.0005645
0.0004895
0.0004142
0.0003391
0.0002638
0.0001884
0.0001131
3.77e-05
-3.77e-05
-0.0001131
-0.0001884
-0.0002638
-0.0003391
-0.0004142
-0.0004895
-0.0005645
-0.0006394
-0.0007143
-0.000789
-0.0008636
-0.000938
-0.0010123
-0.0010863
-0.0011602
-0.0012339
-0.0013073
-0.0013805
-0.0014535
-0.0015262
-0.0015986
-0.0016708
-0.0017426
-0.0018142
-0.0018853
-0.0019563
-0.0020268
-0.0020969
-0.0021667
-0.0022362
-0.0023051
-0.0023738
-0.0024419
-0.0025096
-0.002577
-0.0026438
-0.0027102
-0.002776
-0.0028415
-0.0029063
-0.0029707
-0.0030346
-0.0030979
-0.0031607
-0.0032229
-0.0032845
-0.0033457
-0.0034061
-0.003466
-0.0035252
-0.0035839
-0.003642
-0.0036993
-0.0037561
-0.0038122
-0.0038677
-0.0039223
-0.0039765
-0.0040298
-0.0040826
-0.0041345
-0.0041857
-0.0042363
-0.0042861
-0.0043352
-0.0043835
-0.004431
-0.0044779
-0.0045239
-0.0045692
-0.0046137
-0.0046573
-0.0047003
-0.0047423
-0.0047837
-0.0048242
-0.0048638
-0.0049027
-0.0049407
-0.0049779
-0.0050143
-0.0050498
-0.0050844
-0.0051183
-0.0051512
-0.0051834
-0.0052146
-0.005245
-0.0052745
-0.0053032
-0.0053309
-0.0053579
-0.0053839
-0.005409
-0.0054333
-0.0054566
-0.0054792
-0.0055008
-0.0055215
-0.0055413
-0.0055602
-0.0055784
-0.0055954
-0.0056118
-0.0056271
-0.0056416
-0.0056552
-0.0056679
-0.0056798
-0.0056906
-0.0057007
-0.0057099
-0.0057181
-0.0057255
-0.0057321
-0.0057376
-0.0057424
-0.0057463
-0.0057493
-0.0057515
-0.0057527
-0.0057532
-0.0057527
-0.0057514
-0.0057492
-0.0057463
-0.0057424
-0.0057377
-0.0057323
-0.0057259
-0.0057187
-0.0057107
-0.005702
-0.0056923
-0.0056819
-0.0056707
-0.0056588
-0.0056459
-0.0056323
-0.0056181
-0.0056029
-0.005587
-0.0055705
-0.005553
-0.005535
-0.0055161
-0.0054966
-0.0054763
-0.0054552
-0.0054337
-0.0054112
-0.0053881
-0.0053644
-0.00534
-0.0053149
-0.0052892
-0.0052628
-0.0052358
-0.0052082
-0.0051799
-0.0051511
-0.0051216
-0.0050916
-0.005061
-0.0050298
-0.004998
-0.0049657
-0.0049329
-0.0048995
-0.0048657
-0.0048312
-0.0047964
-0.0047609
-0.0047251
-0.0046888
-0.004652
-0.0046147
-0.0045771
-0.0045389
-0.0045005
-0.0044615
-0.0044223
-0.0043825
-0.0043425
-0.0043021
-0.0042613
-0.0042202
-0.0041787
-0.0041371
-0.0040949
-0.0040526
-0.00401
-0.0039671
-0.003924
-0.0038805
-0.003837
-0.003793
-0.003749
-0.0037048
-0.0036602
-0.0036156
-0.0035709
-0.0035258
-0.0034808
-0.0034355
-0.0033902
-0.0033447
-0.0032991
-0.0032535
-0.0032077
-0.003162
-0.0031161
-0.0030702
-0.0030243
-0.0029784
-0.0029324
-0.0028865
-0.0028406
-0.0027946
-0.0027488
-0.002703
-0.0026572
-0.0026115
-0.0025658
-0.0025204
-0.0024749
-0.0024296
-0.0023844
-0.0023393
-0.0022944
-0.0022496
-0.0022051
-0.0021605
-0.0021163
-0.0020723
-0.0020283
-0.0019847
-0.0019413
-0.0018981
-0.001855
-0.0018124
-0.0017699
-0.0017277
-0.0016857
-0.0016442
-0.0016027
-0.0015618
-0.0015209
-0.0014806
-0.0014405
-0.0014007
-0.0013612
-0.0013223
-0.0012834
-0.0012452
-0.0012072
-0.0011695
-0.0011324
-0.0010955
-0.0010592
-0.0010231
-0.0009875
-0.0009524
-0.0009176
-0.0008832
-0.0008495
-0.0008159
-0.000783
-0.0007505
-0.0007184
-0.0006868
-0.0006557
-0.0006251
-0.0005949
-0.0005652
-0.000536
-0.0005073
-0.0004792
-0.0004514
-0.0004243
-0.0003976
-0.0003715
-0.0003458
-0.0003207
-0.0002961
-0.000272
-0.0002486
-0.0002255
-0.0002031
-0.0001811
-0.0001597
-0.000139
-0.0001186
-9.88e-05
-7.97e-05
-6.1e-05
-4.29e-05
-2.53e-05
-8.3e-06
0
0
18

shape_id 2
num_samples 620
0
0
618

shape_id 3
num_samples 113
-0.025641
-0.0512821
-0.051282
-0.0512821
-0.051282
-0.0512821
-0.051282
-0.0512821
-0.051282
-0.0512821
-0.051282
-0.0512821
-0.051282
-0.0512821
-0.051282
-0.0512821
-0.051282
-0.0512821
-0.051282
-0.0512821
0
0.0512821
0.051282
0.0512821
0.051282
0.0512821
0.051282
0.0512821
0.051282
0.0512821
0.051282
0.0512821
0.051282
0.0512821
0.051282
0.0512821
0.051282
0.0512821
0.051282
0.0512821
0.0519058
0.0525296
0.0525297
0.0525296
0.0525296
0
0.0525297
0.0525296
0.0525296
0
0.0525297
0.0525296
0.0525296
0
0.0262648
0
0
57
-0.0262648
-0.0525296

shape_id 4
num_samples 49
0.4465019
-0.0525297
-0.0525296
-0.0525296
0
-0.0525297
-0.0525296
-0.0525296
0
-0.0525297
-0.0525296
-0.0519058
-0.0512821
-0.051282
-0.0512821
-0.051282
-0.0512821
-0.051282
-0.0512821
-0.051282
-0.0512821
-0.051282
-0.0512821
-0.051282
-0.0512821
-0.051282
-0.0512821
-0.051282
-0.0512821
-0.051282
-0.0512821
0
0.0512821
0.051282
0.0512821
0.051282
0.0512821
0.051282
0.0512821
0.051282
0.0512821
0.051282
0.0512821
0.051282
0.0512821
0.051282
0.0512821
0.051282
0.0512821
0.051282
0.0512821

shape_id 5
num_samples 332
-0.0192308
-0.0384615
-0.0384615
0
-0.0384616
-0.0384615
-0.0384616
-0.0384615
-0.0384615
0
-0.0384616
-0.0384615
-0.0384616
-0.0384615
-0.0384615
0
-0.0384616
-0.0384615
-0.0384615
0
-0.0384616
-0.0384615
-0.0384616
-0.0384615
-0.0384615
0
-0.0384616
-0.0384615
-0.0384616
-0.0384615
-0.0384615
0
-0.0192308
0
0
11
0.0192308
0.0384615
0.0384615
0
0.0384616
0.0384615
0.0384616
0.0384615
0.0384615
0
0.0384616
0.0384615
0.0384616
0.0384615
0.0384615
0
0.0384616
0.0384615
0.0384615
0
0.0384616
0.0384615
0.0384616
0.0384615
0.0384615
0
0.0384616
0.0384615
0.0384616
0.0384615
0.0384615
0
0.0381702
0.0378788
0.0378788
1
0.0378787
0.0378788
0.0378788
1
0.0189394
0
0
253
-0.0189394
-0.0378788

shape_id 6
num_samples 72
0.2083333
-0.0378788
-0.0378787
-0.0378788
-0.0378788
1
-0.0381702
-0.0384615
-0.0384615
0
-0.0384616
-0.0384615
-0.0384616
-0.0384615
-0.0384615
0
-0.0384616
-0.0384615
-0.0384616
-0.0384615
-0.0384615
0
-0.0384616
-0.0384615
-0.0384615
0
-0.0384616
-0.0384615
-0.0384616
-0.0384615
-0.0384615
0
-0.0384616
-0.0384615
-0.0384616
-0.0384615
-0.0384615
0
-0.0192308
0
0
11
0.0192308
0.0384615
0.0384615
0
0.0384616
0.0384615
0.0384616
0.0384615
0.0384615
0
0.0384616
0.0384615
0.0384616
0.0384615
0.0384615
0
0.0384616
0.0384615
0.0384615
0
0.0384616
0.0384615
0.0384616
0.0384615
0.0384615
0
0.0384616
0.0384615
0.0384616
0.0384615
0.0384615
0

