# Pulseq sequence file
# Created by MATLAB mr toolbox

[VERSION]
major 1
minor 4
revision 0

[DEFINITIONS]
AdcRasterTime 1e-07 
BlockDurationRaster 1e-05 
FOV 0.22 0.22 0.004 
GradientRasterTime 1e-05 
Name trufi 
RadiofrequencyRasterTime 1e-06 
TotalDuration 1.20114 

# Format of blocks:
# NUM DUR RF  GX  GY  GZ  ADC  EXT
[BLOCKS]
  1 136   1   0   0   1  0  0
  2  49   0   0   0   2  0  0
  3  49   0   0   0   0  0  0
  4 136   2   0   0   1  0  0
  5 332   0   3   4   2  1  0
  6 136   3   6   5   1  0  0
  7 332   0   3   7   2  2  0
  8 136   2   6   8   1  0  0
  9 332   0   3   9   2  1  0
 10 136   3   6  10   1  0  0
 11 332   0   3  11   2  2  0
 12 136   2   6  12   1  0  0
 13 332   0   3  13   2  1  0
 14 136   3   6  14   1  0  0
 15 332   0   3  15   2  2  0
 16 136   2   6  16   1  0  0
 17 332   0   3  17   2  1  0
 18 136   3   6  18   1  0  0
 19 332   0   3  19   2  2  0
 20 136   2   6  20   1  0  0
 21 332   0   3  21   2  1  0
 22 136   3   6  22   1  0  0
 23 332   0   3  23   2  2  0
 24 136   2   6  24   1  0  0
 25 332   0   3  25   2  1  0
 26 136   3   6  26   1  0  0
 27 332   0   3  27   2  2  0
 28 136   2   6  28   1  0  0
 29 332   0   3  29   2  1  0
 30 136   3   6  30   1  0  0
 31 332   0   3  31   2  2  0
 32 136   2   6  32   1  0  0
 33 332   0   3  33   2  1  0
 34 136   3   6  34   1  0  0
 35 332   0   3  35   2  2  0
 36 136   2   6  36   1  0  0
 37 332   0   3  37   2  1  0
 38 136   3   6  38   1  0  0
 39 332   0   3  39   2  2  0
 40 136   2   6  40   1  0  0
 41 332   0   3  41   2  1  0
 42 136   3   6  42   1  0  0
 43 332   0   3  43   2  2  0
 44 136   2   6  44   1  0  0
 45 332   0   3  45   2  1  0
 46 136   3   6  46   1  0  0
 47 332   0   3  47   2  2  0
 48 136   2   6  48   1  0  0
 49 332   0   3  49   2  1  0
 50 136   3   6  50   1  0  0
 51 332   0   3  51   2  2  0
 52 136   2   6  52   1  0  0
 53 332   0   3  53   2  1  0
 54 136   3   6  54   1  0  0
 55 332   0   3  55   2  2  0
 56 136   2   6  56   1  0  0
 57 332   0   3  57   2  1  0
 58 136   3   6  58   1  0  0
 59 332   0   3  59   2  2  0
 60 136   2   6  60   1  0  0
 61 332   0   3  61   2  1  0
 62 136   3   6  62   1  0  0
 63 332   0   3  63   2  2  0
 64 136   2   6  64   1  0  0
 65 332   0   3  65   2  1  0
 66 136   3   6  66   1  0  0
 67 332   0   3  67   2  2  0
 68 136   2   6  68   1  0  0
 69 332   0   3  69   2  1  0
 70 136   3   6  70   1  0  0
 71 332   0   3  71   2  2  0
 72 136   2   6  72   1  0  0
 73 332   0   3  73   2  1  0
 74 136   3   6  74   1  0  0
 75 332   0   3  75   2  2  0
 76 136   2   6  76   1  0  0
 77 332   0   3  77   2  1  0
 78 136   3   6  78   1  0  0
 79 332   0   3  79   2  2  0
 80 136   2   6  80   1  0  0
 81 332   0   3  81   2  1  0
 82 136   3   6  82   1  0  0
 83 332   0   3  83   2  2  0
 84 136   2   6  84   1  0  0
 85 332   0   3  85   2  1  0
 86 136   3   6  86   1  0  0
 87 332   0   3  87   2  2  0
 88 136   2   6  88   1  0  0
 89 332   0   3  89   2  1  0
 90 136   3   6  90   1  0  0
 91 332   0   3  91   2  2  0
 92 136   2   6  92   1  0  0
 93 332   0   3  93   2  1  0
 94 136   3   6  94   1  0  0
 95 332   0   3  95   2  2  0
 96 136   2   6  96   1  0  0
 97 332   0   3  97   2  1  0
 98 136   3   6  98   1  0  0
 99 332   0   3  99   2  2  0
100 136   2   6 100   1  0  0
101 332   0   3 101   2  1  0
102 136   3   6 102   1  0  0
103 332   0   3 103   2  2  0
104 136   2   6 104   1  0  0
105 332   0   3 105   2  1  0
106 136   3   6 106   1  0  0
107 332   0   3 107   2  2  0
108 136   2   6 108   1  0  0
109 332   0   3 109   2  1  0
110 136   3   6 110   1  0  0
111 332   0   3 111   2  2  0
112 136   2   6 112   1  0  0
113 332   0   3 113   2  1  0
114 136   3   6 114   1  0  0
115 332   0   3 115   2  2  0
116 136   2   6 116   1  0  0
117 332   0   3 117   2  1  0
118 136   3   6 118   1  0  0
119 332   0   3 119   2  2  0
120 136   2   6 120   1  0  0
121 332   0   3 121   2  1  0
122 136   3   6 122   1  0  0
123 332   0   3 123   2  2  0
124 136   2   6 124   1  0  0
125 332   0   3 125   2  1  0
126 136   3   6 126   1  0  0
127 332   0   3 127   2  2  0
128 136   2   6 128   1  0  0
129 332   0   3 129   2  1  0
130 136   3   6 130   1  0  0
131 332   0   3 131   2  2  0
132 136   2   6 132   1  0  0
133 332   0   3 133   2  1  0
134 136   3   6 134   1  0  0
135 332   0   3 135   2  2  0
136 136   2   6 136   1  0  0
137 332   0   3 137   2  1  0
138 136   3   6 138   1  0  0
139 332   0   3 139   2  2  0
140 136   2   6 140   1  0  0
141 332   0   3 141   2  1  0
142 136   3   6 142   1  0  0
143 332   0   3 143   2  2  0
144 136   2   6 144   1  0  0
145 332   0   3 145   2  1  0
146 136   3   6 146   1  0  0
147 332   0   3 147   2  2  0
148 136   2   6 148   1  0  0
149 332   0   3 149   2  1  0
150 136   3   6 150   1  0  0
151 332   0   3 151   2  2  0
152 136   2   6 152   1  0  0
153 332   0   3 153   2  1  0
154 136   3   6 154   1  0  0
155 332   0   3 155   2  2  0
156 136   2   6 156   1  0  0
157 332   0   3 157   2  1  0
158 136   3   6 158   1  0  0
159 332   0   3 159   2  2  0
160 136   2   6 160   1  0  0
161 332   0   3 161   2  1  0
162 136   3   6 162   1  0  0
163 332   0   3 163   2  2  0
164 136   2   6 164   1  0  0
165 332   0   3 165   2  1  0
166 136   3   6 166   1  0  0
167 332   0   3 167   2  2  0
168 136   2   6 168   1  0  0
169 332   0   3 169   2  1  0
170 136   3   6 170   1  0  0
171 332   0   3 171   2  2  0
172 136   2   6 172   1  0  0
173 332   0   3 173   2  1  0
174 136   3   6 174   1  0  0
175 332   0   3 175   2  2  0
176 136   2   6 176   1  0  0
177 332   0   3 177   2  1  0
178 136   3   6 178   1  0  0
179 332   0   3 179   2  2  0
180 136   2   6 180   1  0  0
181 332   0   3 181   2  1  0
182 136   3   6 182   1  0  0
183 332   0   3 183   2  2  0
184 136   2   6 184   1  0  0
185 332   0   3 185   2  1  0
186 136   3   6 186   1  0  0
187 332   0   3 187   2  2  0
188 136   2   6 188   1  0  0
189 332   0   3 189   2  1  0
190 136   3   6 190   1  0  0
191 332   0   3 191   2  2  0
192 136   2   6 192   1  0  0
193 332   0   3 193   2  1  0
194 136   3   6 194   1  0  0
195 332   0   3 195   2  2  0
196 136   2   6 196   1  0  0
197 332   0   3 197   2  1  0
198 136   3   6 198   1  0  0
199 332   0   3 199   2  2  0
200 136   2   6 200   1  0  0
201 332   0   3 201   2  1  0
202 136   3   6 202   1  0  0
203 332   0   3 203   2  2  0
204 136   2   6 204   1  0  0
205 332   0   3 205   2  1  0
206 136   3   6 206   1  0  0
207 332   0   3 207   2  2  0
208 136   2   6 208   1  0  0
209 332   0   3 209   2  1  0
210 136   3   6 210   1  0  0
211 332   0   3 211   2  2  0
212 136   2   6 212   1  0  0
213 332   0   3 213   2  1  0
214 136   3   6 214   1  0  0
215 332   0   3 215   2  2  0
216 136   2   6 216   1  0  0
217 332   0   3 217   2  1  0
218 136   3   6 218   1  0  0
219 332   0   3 219   2  2  0
220 136   2   6 220   1  0  0
221 332   0   3 221   2  1  0
222 136   3   6 222   1  0  0
223 332   0   3 223   2  2  0
224 136   2   6 224   1  0  0
225 332   0   3 225   2  1  0
226 136   3   6 226   1  0  0
227 332   0   3 227   2  2  0
228 136   2   6 228   1  0  0
229 332   0   3 229   2  1  0
230 136   3   6 230   1  0  0
231 332   0   3 231   2  2  0
232 136   2   6 232   1  0  0
233 332   0   3 233   2  1  0
234 136   3   6 234   1  0  0
235 332   0   3 235   2  2  0
236 136   2   6 236   1  0  0
237 332   0   3 237   2  1  0
238 136   3   6 238   1  0  0
239 332   0   3 239   2  2  0
240 136   2   6 240   1  0  0
241 332   0   3 241   2  1  0
242 136   3   6 242   1  0  0
243 332   0   3 243   2  2  0
244 136   2   6 244   1  0  0
245 332   0   3 245   2  1  0
246 136   3   6 246   1  0  0
247 332   0   3 247   2  2  0
248 136   2   6 248   1  0  0
249 332   0   3 249   2  1  0
250 136   3   6 250   1  0  0
251 332   0   3 251   2  2  0
252 136   2   6 252   1  0  0
253 332   0   3 253   2  1  0
254 136   3   6 254   1  0  0
255 332   0   3 255   2  2  0
256 136   2   6 256   1  0  0
257 332   0   3 257   2  1  0
258 136   3   6 258   1  0  0
259 332   0   3 259   2  2  0
260 136   2   6 260   1  0  0
261 332   0   3 261   2  1  0
262 136   3   6 262   1  0  0
263 332   0   3 260   2  2  0
264 136   2   6 259   1  0  0
265 332   0   3 258   2  1  0
266 136   3   6 257   1  0  0
267 332   0   3 256   2  2  0
268 136   2   6 255   1  0  0
269 332   0   3 254   2  1  0
270 136   3   6 253   1  0  0
271 332   0   3 252   2  2  0
272 136   2   6 251   1  0  0
273 332   0   3 250   2  1  0
274 136   3   6 249   1  0  0
275 332   0   3 248   2  2  0
276 136   2   6 247   1  0  0
277 332   0   3 246   2  1  0
278 136   3   6 245   1  0  0
279 332   0   3 244   2  2  0
280 136   2   6 243   1  0  0
281 332   0   3 242   2  1  0
282 136   3   6 241   1  0  0
283 332   0   3 240   2  2  0
284 136   2   6 239   1  0  0
285 332   0   3 238   2  1  0
286 136   3   6 237   1  0  0
287 332   0   3 236   2  2  0
288 136   2   6 235   1  0  0
289 332   0   3 234   2  1  0
290 136   3   6 233   1  0  0
291 332   0   3 232   2  2  0
292 136   2   6 231   1  0  0
293 332   0   3 230   2  1  0
294 136   3   6 229   1  0  0
295 332   0   3 228   2  2  0
296 136   2   6 227   1  0  0
297 332   0   3 226   2  1  0
298 136   3   6 225   1  0  0
299 332   0   3 224   2  2  0
300 136   2   6 223   1  0  0
301 332   0   3 222   2  1  0
302 136   3   6 221   1  0  0
303 332   0   3 220   2  2  0
304 136   2   6 219   1  0  0
305 332   0   3 218   2  1  0
306 136   3   6 217   1  0  0
307 332   0   3 216   2  2  0
308 136   2   6 215   1  0  0
309 332   0   3 214   2  1  0
310 136   3   6 213   1  0  0
311 332   0   3 212   2  2  0
312 136   2   6 211   1  0  0
313 332   0   3 210   2  1  0
314 136   3   6 209   1  0  0
315 332   0   3 208   2  2  0
316 136   2   6 207   1  0  0
317 332   0   3 206   2  1  0
318 136   3   6 205   1  0  0
319 332   0   3 204   2  2  0
320 136   2   6 203   1  0  0
321 332   0   3 202   2  1  0
322 136   3   6 201   1  0  0
[RF]
1      208.295 1 2 0 740 0 0
2      416.589 1 2 0 740 0 3.14159
3      416.589 1 2 0 740 0 0

# Format of arbitrary gradients:
#   time_shape_id of 0 means default timing (stepping with grad_raster starting at 1/2 of grad_raster)
# id amplitude amp_shape_id time_shape_id delay
# ..      Hz/m       ..         ..          us
[GRADIENTS]
1 -1.10938e+06 3 4 230
2  1.10938e+06 5 6 0
3     -1.5e+06 7 8 0
6      1.5e+06 9 10 0

# Format of trapezoid gradients:
# id amplitude rise flat fall delay
# ..      Hz/m   us   us   us    us
[TRAP]
 4 -1.09777e+06 190  340 190   0
 5  1.09777e+06 190  340 190   0
 7 -1.06902e+06 180  360 180   0
 8  1.06902e+06 180  360 180   0
 9 -1.06061e+06 180  360 180   0
10  1.06061e+06 180  360 180   0
11 -1.05219e+06 180  360 180   0
12  1.05219e+06 180  360 180   0
13 -1.04377e+06 180  360 180   0
14  1.04377e+06 180  360 180   0
15 -1.03535e+06 180  360 180   0
16  1.03535e+06 180  360 180   0
17 -1.00826e+06 170  380 170   0
18  1.00826e+06 170  380 170   0
19       -1e+06 170  380 170   0
20        1e+06 170  380 170   0
21      -991736 170  380 170   0
22       991736 170  380 170   0
23      -983471 170  380 170   0
24       983471 170  380 170   0
25      -975207 170  380 170   0
26       975207 170  380 170   0
27      -949675 160  400 160   0
28       949675 160  400 160   0
29      -941558 160  400 160   0
30       941558 160  400 160   0
31      -933442 160  400 160   0
32       933442 160  400 160   0
33      -925325 160  400 160   0
34       925325 160  400 160   0
35      -917208 160  400 160   0
36       917208 160  400 160   0
37      -893142 150  420 150   0
38       893142 150  420 150   0
39      -885167 150  420 150   0
40       885167 150  420 150   0
41      -877193 150  420 150   0
42       877193 150  420 150   0
43      -869219 150  420 150   0
44       869219 150  420 150   0
45      -861244 150  420 150   0
46       861244 150  420 150   0
47      -853270 150  420 150   0
48       853270 150  420 150   0
49      -830721 140  440 140   0
50       830721 140  440 140   0
51      -822884 140  440 140   0
52       822884 140  440 140   0
53      -815047 140  440 140   0
54       815047 140  440 140   0
55      -807210 140  440 140   0
56       807210 140  440 140   0
57      -799373 140  440 140   0
58       799373 140  440 140   0
59      -791536 140  440 140   0
60       791536 140  440 140   0
61      -770416 130  460 130   0
62       770416 130  460 130   0
63      -762712 130  460 130   0
64       762712 130  460 130   0
65      -755008 130  460 130   0
66       755008 130  460 130   0
67      -747304 130  460 130   0
68       747304 130  460 130   0
69      -739599 130  460 130   0
70       739599 130  460 130   0
71      -731895 130  460 130   0
72       731895 130  460 130   0
73      -712121 120  480 120   0
74       712121 120  480 120   0
75      -704545 120  480 120   0
76       704545 120  480 120   0
77      -696970 120  480 120   0
78       696970 120  480 120   0
79      -689394 120  480 120   0
80       689394 120  480 120   0
81      -681818 120  480 120   0
82       681818 120  480 120   0
83      -674242 120  480 120   0
84       674242 120  480 120   0
85      -666667 120  480 120   0
86       666667 120  480 120   0
87      -648286 110  500 110   0
88       648286 110  500 110   0
89      -640835 110  500 110   0
90       640835 110  500 110   0
91      -633383 110  500 110   0
92       633383 110  500 110   0
93      -625931 110  500 110   0
94       625931 110  500 110   0
95      -618480 110  500 110   0
96       618480 110  500 110   0
97      -611028 110  500 110   0
98       611028 110  500 110   0
99      -593842 100  520 100   0
100       593842 100  520 100   0
101      -586510 100  520 100   0
102       586510 100  520 100   0
103      -579179 100  520 100   0
104       579179 100  520 100   0
105      -571848 100  520 100   0
106       571848 100  520 100   0
107      -564516 100  520 100   0
108       564516 100  520 100   0
109      -557185 100  520 100   0
110       557185 100  520 100   0
111      -549853 100  520 100   0
112       549853 100  520 100   0
113      -533911  90  540  90   0
114       533911  90  540  90   0
115      -526696  90  540  90   0
116       526696  90  540  90   0
117      -519481  90  540  90   0
118       519481  90  540  90   0
119      -512266  90  540  90   0
120       512266  90  540  90   0
121      -505051  90  540  90   0
122       505051  90  540  90   0
123      -497835  90  540  90   0
124       497835  90  540  90   0
125      -490620  90  540  90   0
126       490620  90  540  90   0
127      -475852  80  560  80   0
128       475852  80  560  80   0
129      -468750  80  560  80   0
130       468750  80  560  80   0
131      -461648  80  560  80   0
132       461648  80  560  80   0
133      -454545  80  560  80   0
134       454545  80  560  80   0
135      -447443  80  560  80   0
136       447443  80  560  80   0
137      -440341  80  560  80   0
138       440341  80  560  80   0
139      -433239  80  560  80   0
140       433239  80  560  80   0
141      -426136  80  560  80   0
142       426136  80  560  80   0
143      -412587  70  580  70   0
144       412587  70  580  70   0
145      -405594  70  580  70   0
146       405594  70  580  70   0
147      -398601  70  580  70   0
148       398601  70  580  70   0
149      -391608  70  580  70   0
150       391608  70  580  70   0
151      -384615  70  580  70   0
152       384615  70  580  70   0
153      -377622  70  580  70   0
154       377622  70  580  70   0
155      -370629  70  580  70   0
156       370629  70  580  70   0
157      -363636  70  580  70   0
158       363636  70  580  70   0
159      -351240  60  600  60   0
160       351240  60  600  60   0
161      -344353  60  600  60   0
162       344353  60  600  60   0
163      -337466  60  600  60   0
164       337466  60  600  60   0
165      -330579  60  600  60   0
166       330579  60  600  60   0
167      -323691  60  600  60   0
168       323691  60  600  60   0
169      -316804  60  600  60   0
170       316804  60  600  60   0
171      -309917  60  600  60   0
172       309917  60  600  60   0
173      -303030  60  600  60   0
174       303030  60  600  60   0
175      -291723  50  620  50   0
176       291723  50  620  50   0
177      -284939  50  620  50   0
178       284939  50  620  50   0
179      -278155  50  620  50   0
180       278155  50  620  50   0
181      -271370  50  620  50   0
182       271370  50  620  50   0
183      -264586  50  620  50   0
184       264586  50  620  50   0
185      -257802  50  620  50   0
186       257802  50  620  50   0
187      -251018  50  620  50   0
188       251018  50  620  50   0
189      -244233  50  620  50   0
190       244233  50  620  50   0
191      -233957  40  640  40   0
192       233957  40  640  40   0
193      -227273  40  640  40   0
194       227273  40  640  40   0
195      -220588  40  640  40   0
196       220588  40  640  40   0
197      -213904  40  640  40   0
198       213904  40  640  40   0
199      -207219  40  640  40   0
200       207219  40  640  40   0
201      -200535  40  640  40   0
202       200535  40  640  40   0
203      -193850  40  640  40   0
204       193850  40  640  40   0
205      -187166  40  640  40   0
206       187166  40  640  40   0
207      -177866  30  660  30   0
208       177866  30  660  30   0
209      -171278  30  660  30   0
210       171278  30  660  30   0
211      -164690  30  660  30   0
212       164690  30  660  30   0
213      -158103  30  660  30   0
214       158103  30  660  30   0
215      -151515  30  660  30   0
216       151515  30  660  30   0
217      -144928  30  660  30   0
218       144928  30  660  30   0
219      -138340  30  660  30   0
220       138340  30  660  30   0
221      -131752  30  660  30   0
222       131752  30  660  30   0
223      -125165  30  660  30   0
224       125165  30  660  30   0
225      -116883  20  680  20   0
226       116883  20  680  20   0
227      -110390  20  680  20   0
228       110390  20  680  20   0
229      -103896  20  680  20   0
230       103896  20  680  20   0
231     -97402.6  20  680  20   0
232      97402.6  20  680  20   0
233     -90909.1  20  680  20   0
234      90909.1  20  680  20   0
235     -84415.6  20  680  20   0
236      84415.6  20  680  20   0
237     -77922.1  20  680  20   0
238      77922.1  20  680  20   0
239     -71428.6  20  680  20   0
240      71428.6  20  680  20   0
241     -64935.1  20  680  20   0
242      64935.1  20  680  20   0
243     -57618.4  10  700  10   0
244      57618.4  10  700  10   0
245     -51216.4  10  700  10   0
246      51216.4  10  700  10   0
247     -44814.3  10  700  10   0
248      44814.3  10  700  10   0
249     -38412.3  10  700  10   0
250      38412.3  10  700  10   0
251     -32010.2  10  700  10   0
252      32010.2  10  700  10   0
253     -25608.2  10  700  10   0
254      25608.2  10  700  10   0
255     -19206.1  10  700  10   0
256      19206.1  10  700  10   0
257     -12804.1  10  700  10   0
258      12804.1  10  700  10   0
259     -6402.05  10  700  10   0
260      6402.05  10  700  10   0
261            0  10  700  10   0
262           -0  10  700  10   0

# Format of ADC events:
# id num dwell delay freq phase
# ..  ..    ns    us   Hz   rad
[ADC]
1 256 10000 740 0 3.14159
2 256 10000 740 0 0

# Sequence Shapes
[SHAPES]

shape_id 1
num_samples 600
2.06841386e-06
1.88227171e-05
5.28599524e-05
0.000104730989
0.000174985766
0.00026417313
0.000372840677
0.000501534589
0.000650799475
0.00082117821
0.00101321177
0.00122743908
0.00146439685
0.00172461939
0.00200863849
0.00231698324
0.00265017986
0.00300875155
0.00339321834
0.00380409689
0.0042419004
0.00470713839
0.00520031655
0.00572193662
0.00627249619
0.00685248857
0.00746240262
0.00810272261
0.00877392805
0.00947649352
0.0102108886
0.0109775776
0.0117770194
0.0126096676
0.0134759698
0.0143763681
0.0153112985
0.0162811909
0.017286469
0.0183275499
0.0194048445
0.0205187567
0.0216696839
0.0228580163
0.0240841371
0.0253484223
0.0266512404
0.0279929526
0.0293739123
0.0307944654
0.0322549495
0.0337556947
0.0352970226
0.0368792467
0.0385026721
0.0401675953
0.0418743044
0.0436230786
0.0454141884
0.0472478953
0.0491244516
0.0510441007
0.0530070765
0.0550136037
0.0570638974
0.0591581632
0.0612965971
0.0634793851
0.0657067037
0.0679787191
0.0702955877
0.0726574558
0.0750644593
0.0775167241
0.0800143655
0.0825574885
0.0851461876
0.0877805467
0.0904606391
0.0931865274
0.0959582633
0.0987758878
0.101639431
0.104548912
0.10750434
0.11050571
0.11355301
0.116646214
0.119785286
0.122970179
0.126200833
0.12947718
0.132799137
0.136166612
0.139579501
0.143037689
0.146541049
0.150089443
0.153682722
0.157320724
0.161003277
0.164730197
0.16850129
0.172316347
0.176175151
0.180077473
0.18402307
0.188011692
0.192043074
0.19611694
0.200233005
0.20439097
0.208590526
0.212831353
0.217113118
0.22143548
0.225798084
0.230200565
0.234642547
0.239123642
0.243643453
0.24820157
0.252797572
0.257431031
0.262101503
0.266808538
0.271551671
0.27633043
0.28114433
0.285992879
0.290875571
0.295791892
0.300741317
0.30572331
0.310737329
0.315782816
0.32085921
0.325965934
0.331102406
0.336268032
0.341462211
0.346684329
0.351933767
0.357209895
0.362512074
0.367839656
0.373191985
0.378568396
0.383968217
0.389390765
0.394835352
0.400301278
0.40578784
0.411294324
0.416820008
0.422364165
0.427926058
0.433504945
0.439100077
0.444710695
0.450336037
0.455975333
0.461627806
0.467292673
0.472969146
0.478656429
0.484353723
0.49006022
0.49577511
0.501497575
0.507226794
0.512961939
0.518702178
0.524446676
0.530194592
0.53594508
0.541697292
0.547450374
0.553203471
0.558955721
0.564706263
0.570454228
0.576198747
0.581938949
0.587673958
0.593402898
0.599124887
0.604839045
0.610544489
0.616240334
0.621925693
0.627599678
0.633261401
0.638909972
0.644544502
0.650164098
0.655767871
0.661354929
0.666924381
0.672475337
0.678006906
0.6835182
0.68900833
0.694476407
0.699921547
0.705342865
0.710739477
0.716110504
0.721455065
0.726772285
0.732061289
0.737321205
0.742551167
0.747750307
0.752917764
0.758052679
0.763154197
0.768221466
0.773253641
0.778249877
0.783209336
0.788131184
0.793014592
0.797858737
0.802662799
0.807425964
0.812147426
0.81682638
0.821462032
0.826053591
0.830600273
0.8351013
0.839555902
0.843963315
0.848322781
0.852633552
0.856894884
0.861106042
0.865266299
0.869374936
0.873431241
0.877434511
0.881384051
0.885279174
0.889119204
0.89290347
0.896631312
0.900302081
0.903915134
0.907469839
0.910965573
0.914401724
0.917777689
0.921092874
0.924346696
0.927538583
0.930667973
0.933734314
0.936737064
0.939675694
0.942549683
0.945358525
0.94810172
0.950778784
0.953389242
0.955932631
0.958408498
0.960816406
0.963155924
0.965426638
0.967628143
0.969760047
0.97182197
0.973813544
0.975734416
0.977584241
0.979362689
0.981069443
0.982704198
0.984266661
0.985756553
0.987173608
0.988517572
0.989788204
0.990985277
0.992108576
0.9931579
0.994133061
0.995033884
0.995860207
0.996611883
0.997288776
0.997890765
0.998417743
0.998869613
0.999246296
0.999547723
0.999773841
0.999924609
1
1
0.999924609
0.999773841
0.999547723
0.999246296
0.998869613
0.998417743
0.997890765
0.997288776
0.996611883
0.995860207
0.995033884
0.994133061
0.9931579
0.992108576
0.990985277
0.989788204
0.988517572
0.987173608
0.985756553
0.984266661
0.982704198
0.981069443
0.979362689
0.977584241
0.975734416
0.973813544
0.97182197
0.969760047
0.967628143
0.965426638
0.963155924
0.960816406
0.958408498
0.955932631
0.953389242
0.950778784
0.94810172
0.945358525
0.942549683
0.939675694
0.936737064
0.933734314
0.930667973
0.927538583
0.924346696
0.921092874
0.917777689
0.914401724
0.910965573
0.907469839
0.903915134
0.900302081
0.896631312
0.89290347
0.889119204
0.885279174
0.881384051
0.877434511
0.873431241
0.869374936
0.865266299
0.861106042
0.856894884
0.852633552
0.848322781
0.843963315
0.839555902
0.8351013
0.830600273
0.826053591
0.821462032
0.81682638
0.812147426
0.807425964
0.802662799
0.797858737
0.793014592
0.788131184
0.783209336
0.778249877
0.773253641
0.768221466
0.763154197
0.758052679
0.752917764
0.747750307
0.742551167
0.737321205
0.732061289
0.726772285
0.721455065
0.716110504
0.710739477
0.705342865
0.699921547
0.694476407
0.68900833
0.6835182
0.678006906
0.672475337
0.666924381
0.661354929
0.655767871
0.650164098
0.644544502
0.638909972
0.633261401
0.627599678
0.621925693
0.616240334
0.610544489
0.604839045
0.599124887
0.593402898
0.587673958
0.581938949
0.576198747
0.570454228
0.564706263
0.558955721
0.553203471
0.547450374
0.541697292
0.53594508
0.530194592
0.524446676
0.518702178
0.512961939
0.507226794
0.501497575
0.49577511
0.49006022
0.484353723
0.478656429
0.472969146
0.467292673
0.461627806
0.455975333
0.450336037
0.444710695
0.439100077
0.433504945
0.427926058
0.422364165
0.416820008
0.411294324
0.40578784
0.400301278
0.394835352
0.389390765
0.383968217
0.378568396
0.373191985
0.367839656
0.362512074
0.357209895
0.351933767
0.346684329
0.341462211
0.336268032
0.331102406
0.325965934
0.32085921
0.315782816
0.310737329
0.30572331
0.300741317
0.295791892
0.290875571
0.285992879
0.28114433
0.27633043
0.271551671
0.266808538
0.262101503
0.257431031
0.252797572
0.24820157
0.243643453
0.239123642
0.234642547
0.230200565
0.225798084
0.22143548
0.217113118
0.212831353
0.208590526
0.20439097
0.200233005
0.19611694
0.192043074
0.188011692
0.18402307
0.180077473
0.176175151
0.172316347
0.16850129
0.164730197
0.161003277
0.157320724
0.153682722
0.150089443
0.146541049
0.143037689
0.139579501
0.136166612
0.132799137
0.12947718
0.126200833
0.122970179
0.119785286
0.116646214
0.11355301
0.11050571
0.10750434
0.104548912
0.101639431
0.0987758878
0.0959582633
0.0931865274
0.0904606391
0.0877805467
0.0851461876
0.0825574885
0.0800143655
0.0775167241
0.0750644593
0.0726574558
0.0702955877
0.0679787191
0.0657067037
0.0634793851
0.0612965971
0.0591581632
0.0570638974
0.0550136037
0.0530070765
0.0510441007
0.0491244516
0.0472478953
0.0454141884
0.0436230786
0.0418743044
0.0401675953
0.0385026721
0.0368792467
0.0352970226
0.0337556947
0.0322549495
0.0307944654
0.0293739123
0.0279929526
0.0266512404
0.0253484223
0.0240841371
0.0228580163
0.0216696839
0.0205187567
0.0194048445
0.0183275499
0.017286469
0.0162811909
0.0153112985
0.0143763681
0.0134759698
0.0126096676
0.0117770194
0.0109775776
0.0102108886
0.00947649352
0.00877392805
0.00810272261
0.00746240262
0.00685248857
0.00627249619
0.00572193662
0.00520031655
0.00470713839
0.0042419004
0.00380409689
0.00339321834
0.00300875155
0.00265017986
0.00231698324
0.00200863849
0.00172461939
0.00146439685
0.00122743908
0.00101321177
0.00082117821
0.000650799475
0.000501534589
0.000372840677
0.00026417313
0.000174985766
0.000104730989
5.28599524e-05
1.88227171e-05
2.06841386e-06

shape_id 2
num_samples 600
0
0
598

shape_id 3
num_samples 6
-0
1
-0
-0.563380282
-0.563380282
-0.460947503

shape_id 4
num_samples 6
0
20
40
51
111
113

shape_id 5
num_samples 4
0.460947503
0
-1
0

shape_id 6
num_samples 4
0
9
29
49

shape_id 7
num_samples 7
-0
1
1
-0
-0.303030303
-0.303030303
-0.227272727

shape_id 8
num_samples 7
0
26
40
66
74
330
332

shape_id 9
num_samples 5
0.227272727
0
-1
-1
0

shape_id 10
num_samples 5
0
6
32
46
72


[SIGNATURE]
# This is the hash of the Pulseq file, calculated right before the [SIGNATURE] section was added
# It can be reproduced/verified with md5sum if the file trimmed to the position right above [SIGNATURE]
# The new line character preceding [SIGNATURE] BELONGS to the signature (and needs to be sripped away for recalculating/verification)
Type md5
Hash d9068ba8983174a36c833d2a13102006
