# Pulseq sequence file
# Created by PyPulseq

[VERSION]
major 1
minor 5
revision 0

[DEFINITIONS]
AdcRasterTime 1e-07 
BlockDurationRaster 1e-05 
FOV 0.25 0.25 0.003 
GradientRasterTime 1e-05 
Name ute 
RadiofrequencyRasterTime 1e-06 
TotalDuration 0.64 

# Format of blocks:
# NUM DUR RF  GX  GY  GZ  ADC  EXT
[BLOCKS]
  1 132   1   0   0   1  0  0
  2  24   0   2   3   4  0  0
  3 260   0   5   6   0  1  0
  4 584   0   7   8   0  0  0
  5 132   2   0   0   9  0  0
  6  24   0   2   3  10  0  0
  7 260   0   5   6   0  2  0
  8 584   0   7   8   0  0  0
  9 132   3   0   0   1  0  0
 10  24   0  11  12   4  0  0
 11 260   0  13  14   0  3  0
 12 584   0  15  16   0  0  0
 13 132   4   0   0   9  0  0
 14  24   0  11  12  10  0  0
 15 260   0  13  14   0  4  0
 16 584   0  15  16   0  0  0
 17 132   5   0   0   1  0  0
 18  24   0  17  18   4  0  0
 19 260   0  19  20   0  5  0
 20 584   0  21  22   0  0  0
 21 132   6   0   0   9  0  0
 22  24   0  17  18  10  0  0
 23 260   0  19  20   0  6  0
 24 584   0  21  22   0  0  0
 25 132   7   0   0   1  0  0
 26  24   0  23  24   4  0  0
 27 260   0  25  26   0  7  0
 28 584   0  27  28   0  0  0
 29 132   8   0   0   9  0  0
 30  24   0  23  24  10  0  0
 31 260   0  25  26   0  8  0
 32 584   0  27  28   0  0  0
 33 132   9   0   0   1  0  0
 34  24   0  29  29   4  0  0
 35 260   0  30  30   0  9  0
 36 584   0  31  31   0  0  0
 37 132  10   0   0   9  0  0
 38  24   0  29  29  10  0  0
 39 260   0  30  30   0 10  0
 40 584   0  31  31   0  0  0
 41 132   6   0   0   1  0  0
 42  24   0  24  23   4  0  0
 43 260   0  26  25   0  6  0
 44 584   0  28  27   0  0  0
 45 132  11   0   0   9  0  0
 46  24   0  24  23  10  0  0
 47 260   0  26  25   0 11  0
 48 584   0  28  27   0  0  0
 49 132  12   0   0   1  0  0
 50  24   0  18  17   4  0  0
 51 260   0  20  19   0 12  0
 52 584   0  22  21   0  0  0
 53 132  13   0   0   9  0  0
 54  24   0  18  17  10  0  0
 55 260   0  20  19   0 13  0
 56 584   0  22  21   0  0  0
 57 132  14   0   0   1  0  0
 58  24   0  12  11   4  0  0
 59 260   0  14  13   0 14  0
 60 584   0  16  15   0  0  0
 61 132   1   0   0   9  0  0
 62  24   0  12  11  10  0  0
 63 260   0  14  13   0  1  0
 64 584   0  16  15   0  0  0
 65 132  15   0   0   1  0  0
 66  24   0  32   2   4  0  0
 67 260   0  33   5   0 15  0
 68 584   0  34   7   0  0  0
 69 132  16   0   0   9  0  0
 70  24   0  32   2  10  0  0
 71 260   0  33   5   0 16  0
 72 584   0  34   7   0  0  0
 73 132  13   0   0   1  0  0
 74  24   0  35  11   4  0  0
 75 260   0  36  13   0 13  0
 76 584   0  37  15   0  0  0
 77 132  17   0   0   9  0  0
 78  24   0  35  11  10  0  0
 79 260   0  36  13   0 17  0
 80 584   0  37  15   0  0  0
 81 132   5   0   0   1  0  0
 82  24   0  38  17   4  0  0
 83 260   0  39  19   0  5  0
 84 584   0  40  21   0  0  0
 85 132  18   0   0   9  0  0
 86  24   0  38  17  10  0  0
 87 260   0  39  19   0 18  0
 88 584   0  40  21   0  0  0
 89 132  19   0   0   1  0  0
 90  24   0  41  23   4  0  0
 91 260   0  42  25   0 19  0
 92 584   0  43  27   0  0  0
 93 132   9   0   0   9  0  0
 94  24   0  41  23  10  0  0
 95 260   0  42  25   0  9  0
 96 584   0  43  27   0  0  0
 97 132  20   0   0   1  0  0
 98  24   0  44  29   4  0  0
 99 260   0  45  30   0 20  0
100 584   0  46  31   0  0  0
101 132  10   0   0   9  0  0
102  24   0  44  29  10  0  0
103 260   0  45  30   0 10  0
104 584   0  46  31   0  0  0
105 132  18   0   0   1  0  0
106  24   0  47  24   4  0  0
107 260   0  48  26   0 18  0
108 584   0  49  28   0  0  0
109 132  21   0   0   9  0  0
110  24   0  47  24  10  0  0
111 260   0  48  26   0 21  0
112 584   0  49  28   0  0  0
113 132   4   0   0   1  0  0
114  24   0  50  18   4  0  0
115 260   0  51  20   0  4  0
116 584   0  52  22   0  0  0
117 132  22   0   0   9  0  0
118  24   0  50  18  10  0  0
119 260   0  51  20   0 22  0
120 584   0  52  22   0  0  0
121 132  14   0   0   1  0  0
122  24   0  53  12   4  0  0
123 260   0  54  14   0 14  0
124 584   0  55  16   0  0  0
125 132  15   0   0   9  0  0
126  24   0  53  12  10  0  0
127 260   0  54  14   0 15  0
128 584   0  55  16   0  0  0
129 132  23   0   0   1  0  0
130  24   0  56  57   4  0  0
131 260   0  58  59   0 23  0
132 584   0  60  61   0  0  0
133 132   2   0   0   9  0  0
134  24   0  56  57  10  0  0
135 260   0  58  59   0  2  0
136 584   0  60  61   0  0  0
137 132  22   0   0   1  0  0
138  24   0  53  35   4  0  0
139 260   0  54  36   0 22  0
140 584   0  55  37   0  0  0
141 132  17   0   0   9  0  0
142  24   0  53  35  10  0  0
143 260   0  54  36   0 17  0
144 584   0  55  37   0  0  0
145 132  11   0   0   1  0  0
146  24   0  50  38   4  0  0
147 260   0  51  39   0 11  0
148 584   0  52  40   0  0  0
149 132  24   0   0   9  0  0
150  24   0  50  38  10  0  0
151 260   0  51  39   0 24  0
152 584   0  52  40   0  0  0
153 132   7   0   0   1  0  0
154  24   0  47  41   4  0  0
155 260   0  48  42   0  7  0
156 584   0  49  43   0  0  0
157 132  20   0   0   9  0  0
158  24   0  47  41  10  0  0
159 260   0  48  42   0 20  0
160 584   0  49  43   0  0  0
161 132  20   0   0   1  0  0
162  24   0  44  44   4  0  0
163 260   0  45  45   0 20  0
164 584   0  46  46   0  0  0
165 132   7   0   0   9  0  0
166  24   0  44  44  10  0  0
167 260   0  45  45   0  7  0
168 584   0  46  46   0  0  0
169 132  24   0   0   1  0  0
170  24   0  41  47   4  0  0
171 260   0  42  48   0 24  0
172 584   0  43  49   0  0  0
173 132  11   0   0   9  0  0
174  24   0  41  47  10  0  0
175 260   0  42  48   0 11  0
176 584   0  43  49   0  0  0
177 132  17   0   0   1  0  0
178  24   0  38  50   4  0  0
179 260   0  39  51   0 17  0
180 584   0  40  52   0  0  0
181 132  22   0   0   9  0  0
182  24   0  38  50  10  0  0
183 260   0  39  51   0 22  0
184 584   0  40  52   0  0  0
185 132   2   0   0   1  0  0
186  24   0  35  53   4  0  0
187 260   0  36  54   0  2  0
188 584   0  37  55   0  0  0
189 132  23   0   0   9  0  0
190  24   0  35  53  10  0  0
191 260   0  36  54   0 23  0
192 584   0  37  55   0  0  0
193 132  15   0   0   1  0  0
194  24   0  62  56   4  0  0
195 260   0  63  58   0 15  0
196 584   0  64  60   0  0  0
197 132  14   0   0   9  0  0
198  24   0  62  56  10  0  0
199 260   0  63  58   0 14  0
200 584   0  64  60   0  0  0
201 132  22   0   0   1  0  0
202  24   0  12  53   4  0  0
203 260   0  14  54   0 22  0
204 584   0  16  55   0  0  0
205 132   4   0   0   9  0  0
206  24   0  12  53  10  0  0
207 260   0  14  54   0  4  0
208 584   0  16  55   0  0  0
209 132  21   0   0   1  0  0
210  24   0  18  50   4  0  0
211 260   0  20  51   0 21  0
212 584   0  22  52   0  0  0
213 132  18   0   0   9  0  0
214  24   0  18  50  10  0  0
215 260   0  20  51   0 18  0
216 584   0  22  52   0  0  0
217 132  10   0   0   1  0  0
218  24   0  24  47   4  0  0
219 260   0  26  48   0 10  0
220 584   0  28  49   0  0  0
221 132  20   0   0   9  0  0
222  24   0  24  47  10  0  0
223 260   0  26  48   0 20  0
224 584   0  28  49   0  0  0
225 132   9   0   0   1  0  0
226  24   0  29  44   4  0  0
227 260   0  30  45   0  9  0
228 584   0  31  46   0  0  0
229 132  19   0   0   9  0  0
230  24   0  29  44  10  0  0
231 260   0  30  45   0 19  0
232 584   0  31  46   0  0  0
233 132  18   0   0   1  0  0
234  24   0  23  41   4  0  0
235 260   0  25  42   0 18  0
236 584   0  27  43   0  0  0
237 132   5   0   0   9  0  0
238  24   0  23  41  10  0  0
239 260   0  25  42   0  5  0
240 584   0  27  43   0  0  0
241 132  17   0   0   1  0  0
242  24   0  17  38   4  0  0
243 260   0  19  39   0 17  0
244 584   0  21  40   0  0  0
245 132  13   0   0   9  0  0
246  24   0  17  38  10  0  0
247 260   0  19  39   0 13  0
248 584   0  21  40   0  0  0
249 132  16   0   0   1  0  0
250  24   0  11  35   4  0  0
251 260   0  13  36   0 16  0
252 584   0  15  37   0  0  0
253 132  15   0   0   9  0  0
254  24   0  11  35  10  0  0
255 260   0  13  36   0 15  0
256 584   0  15  37   0  0  0

# Format of RF events:
# id ampl. mag_id phase_id time_shape_id center delay freqPPm phasePPM freq phase use
# ..   Hz      ..       ..            ..     us    us     ppm  rad/MHz   Hz   rad  ..
# Field "use" is the initial of: excitation refocusing inversion saturation preparation other undefined
[RF]
1      161.288 1 2 0 1000 160 0 0 0 0 e
2      161.288 1 2 0 1000 160 0 0 0 2.04204 e
3      161.288 1 2 0 1000 160 0 0 0 6.12611 e
4      161.288 1 2 0 1000 160 0 0 0 5.96903 e
5      161.288 1 2 0 1000 160 0 0 0 1.5708 e
6      161.288 1 2 0 1000 160 0 0 0 5.49779 e
7      161.288 1 2 0 1000 160 0 0 0 5.18363 e
8      161.288 1 2 0 1000 160 0 0 0 0.628319 e
9      161.288 1 2 0 1000 160 0 0 0 4.39823 e
10      161.288 1 2 0 1000 160 0 0 0 3.92699 e
11      161.288 1 2 0 1000 160 0 0 0 2.82743 e
12      161.288 1 2 0 1000 160 0 0 0 2.19911 e
13      161.288 1 2 0 1000 160 0 0 0 3.61283 e
14      161.288 1 2 0 1000 160 0 0 0 0.785398 e
15      161.288 1 2 0 1000 160 0 0 0 1.25664 e
16      161.288 1 2 0 1000 160 0 0 0 4.55531 e
17      161.288 1 2 0 1000 160 0 0 0 4.71239 e
18      161.288 1 2 0 1000 160 0 0 0 0.471239 e
19      161.288 1 2 0 1000 160 0 0 0 1.41372 e
20      161.288 1 2 0 1000 160 0 0 0 3.14159 e
21      161.288 1 2 0 1000 160 0 0 0 5.34071 e
22      161.288 1 2 0 1000 160 0 0 0 2.35619 e
23      161.288 1 2 0 1000 160 0 0 0 3.76991 e
24      161.288 1 2 0 1000 160 0 0 0 2.98451 e

# Format of trapezoid gradients:
# id amplitude rise flat fall delay
# ..      Hz/m   us   us   us    us
[TRAP]
 1      -666667 160 1000 160   0
 2       -50000  20    0  20 200
 3           -0  20    0  20 200
 4       444444 120    0 120   0
 5        50000  20 2560  20   0
 6            0  20 2560  20   0
 7       320000  80    0  80   0
 8            0  80    0  80   0
 9       666667 160 1000 160   0
10      -444444 120    0 120   0
11     -49039.3  20    0  20 200
12     -9754.52  20    0  20 200
13      49039.3  20 2560  20   0
14      9754.52  20 2560  20   0
15       313851  80    0  80   0
16      62428.9  80    0  80   0
17       -46194  20    0  20 200
18     -19134.2  20    0  20 200
19        46194  20 2560  20   0
20      19134.2  20 2560  20   0
21       295641  80    0  80   0
22       122459  80    0  80   0
23     -41573.5  20    0  20 200
24     -27778.5  20    0  20 200
25      41573.5  20 2560  20   0
26      27778.5  20 2560  20   0
27       266070  80    0  80   0
28       177782  80    0  80   0
29     -35355.3  20    0  20 200
30      35355.3  20 2560  20   0
31       226274  80    0  80   0
32 -3.06162e-12  20    0  20 200
33  3.06162e-12  20 2560  20   0
34  1.95943e-11  80    0  80   0
35      9754.52  20    0  20 200
36     -9754.52  20 2560  20   0
37     -62428.9  80    0  80   0
38      19134.2  20    0  20 200
39     -19134.2  20 2560  20   0
40      -122459  80    0  80   0
41      27778.5  20    0  20 200
42     -27778.5  20 2560  20   0
43      -177782  80    0  80   0
44      35355.3  20    0  20 200
45     -35355.3  20 2560  20   0
46      -226274  80    0  80   0
47      41573.5  20    0  20 200
48     -41573.5  20 2560  20   0
49      -266070  80    0  80   0
50        46194  20    0  20 200
51       -46194  20 2560  20   0
52      -295641  80    0  80   0
53      49039.3  20    0  20 200
54     -49039.3  20 2560  20   0
55      -313851  80    0  80   0
56        50000  20    0  20 200
57 -6.12323e-12  20    0  20 200
58       -50000  20 2560  20   0
59  6.12323e-12  20 2560  20   0
60      -320000  80    0  80   0
61  3.91887e-11  80    0  80   0
62   9.1849e-12  20    0  20 200
63  -9.1849e-12  20 2560  20   0
64  -5.8783e-11  80    0  80   0

# Format of ADC events:
# id num dwell delay freqPPM phasePPM freq phase phase_id
# ..  ..    ns    us     ppm  rad/MHz   Hz   rad       ..
[ADC]
1 128 20000 20 0 0 0 0 0
2 128 20000 20 0 0 0 2.04204 0
3 128 20000 20 0 0 0 6.12611 0
4 128 20000 20 0 0 0 5.96903 0
5 128 20000 20 0 0 0 1.5708 0
6 128 20000 20 0 0 0 5.49779 0
7 128 20000 20 0 0 0 5.18363 0
8 128 20000 20 0 0 0 0.628319 0
9 128 20000 20 0 0 0 4.39823 0
10 128 20000 20 0 0 0 3.92699 0
11 128 20000 20 0 0 0 2.82743 0
12 128 20000 20 0 0 0 2.19911 0
13 128 20000 20 0 0 0 3.61283 0
14 128 20000 20 0 0 0 0.785398 0
15 128 20000 20 0 0 0 1.25664 0
16 128 20000 20 0 0 0 4.55531 0
17 128 20000 20 0 0 0 4.71239 0
18 128 20000 20 0 0 0 0.471239 0
19 128 20000 20 0 0 0 1.41372 0
20 128 20000 20 0 0 0 3.14159 0
21 128 20000 20 0 0 0 5.34071 0
22 128 20000 20 0 0 0 2.35619 0
23 128 20000 20 0 0 0 3.76991 0
24 128 20000 20 0 0 0 2.98451 0

# Sequence Shapes
[SHAPES]

shape_id 1
num_samples 1000
0.000500250125
0.00150220396
0.00250601832
0.00351159978
0.0045188546
0.00552768869
0.00653800764
0.00754971674
0.00856272099
0.00957692508
0.0105922335
0.0116085503
0.0126257796
0.0136438249
0.0146625898
0.0156819775
0.0167018911
0.0177222335
0.0187429073
0.0197638151
0.0207848593
0.0218059421
0.0228269657
0.023847832
0.024868443
0.0258887005
0.0269085062
0.0279277618
0.0289463691
0.0299642294
0.0309812446
0.031997316
0.0330123453
0.034026234
0.0350388838
0.0360501963
0.0370600731
0.0380684161
0.0390751271
0.040080108
0.0410832608
0.0420844877
0.043083691
0.0440807731
0.0450756365
0.046068184
0.0470583185
0.0480459431
0.0490309612
0.0500132762
0.0509927919
0.0519694124
0.0529430419
0.053913585
0.0548809464
0.0558450313
0.056805745
0.0577629934
0.0587166825
0.0596667187
0.0606130087
0.0615554598
0.0624939795
0.0634284756
0.0643588565
0.0652850309
0.0662069081
0.0671243976
0.0680374094
0.0689458543
0.0698496431
0.0707486874
0.0716428992
0.0725321911
0.0734164761
0.0742956678
0.0751696804
0.0760384286
0.0769018277
0.0777597935
0.0786122426
0.0794590921
0.0803002596
0.0811356634
0.0819652227
0.082788857
0.0836064866
0.0844180324
0.0852234163
0.0860225605
0.0868153881
0.0876018228
0.0883817893
0.0891552128
0.0899220193
0.0906821355
0.0914354891
0.0921820083
0.0929216223
0.093654261
0.094379855
0.0950983361
0.0958096365
0.0965136894
0.097210429
0.0978997902
0.0985817087
0.0992561212
0.0999229653
0.100582179
0.101233703
0.101877476
0.10251344
0.103141537
0.10376171
0.104373903
0.104978061
0.105574129
0.106162056
0.106741788
0.107313274
0.107876464
0.10843131
0.108977762
0.109515774
0.1100453
0.110566294
0.111078712
0.111582511
0.11207765
0.112564087
0.113041782
0.113510697
0.113970793
0.114422035
0.114864385
0.115297811
0.115722278
0.116137754
0.116544208
0.11694161
0.11732993
0.11770914
0.118079215
0.118440127
0.118791853
0.119134369
0.119467652
0.119791683
0.120106439
0.120411903
0.120708057
0.120994884
0.121272368
0.121540496
0.121799254
0.12204863
0.122288613
0.122519194
0.122740364
0.122952115
0.123154442
0.123347339
0.123530803
0.12370483
0.123869419
0.124024571
0.124170284
0.124306563
0.124433409
0.124550827
0.124658822
0.124757401
0.124846572
0.124926343
0.124996726
0.12505773
0.125109369
0.125151656
0.125184606
0.125208234
0.125222559
0.125227597
0.125223369
0.125209894
0.125187195
0.125155294
0.125114216
0.125063984
0.125004626
0.124936169
0.124858641
0.124772072
0.124676492
0.124571934
0.124458429
0.124336013
0.12420472
0.124064586
0.123915648
0.123757946
0.123591518
0.123416405
0.123232649
0.123040291
0.122839377
0.122629949
0.122412055
0.122185741
0.121951055
0.121708046
0.121456763
0.121197257
0.120929581
0.120653787
0.120369929
0.120078061
0.119778241
0.119470523
0.119154966
0.118831629
0.118500571
0.118161853
0.117815536
0.117461682
0.117100355
0.116731618
0.116355537
0.115972178
0.115581607
0.115183891
0.1147791
0.114367302
0.113948568
0.113522968
0.113090574
0.112651458
0.112205695
0.111753357
0.111294519
0.110829257
0.110357648
0.109879767
0.109395694
0.108905505
0.108409281
0.107907101
0.107399045
0.106885194
0.10636563
0.105840436
0.105309694
0.104773488
0.104231901
0.103685019
0.103132927
0.102575711
0.102013456
0.101446251
0.100874181
0.100297335
0.0997158022
0.0991296702
0.0985390287
0.0979439674
0.0973445763
0.0967409462
0.0961331678
0.0955213327
0.0949055325
0.0942858592
0.0936624054
0.0930352638
0.0924045273
0.0917702895
0.0911326439
0.0904916845
0.0898475055
0.0892002012
0.0885498665
0.087896596
0.0872404848
0.0865816283
0.0859201219
0.085256061
0.0845895414
0.083920659
0.0832495096
0.0825761892
0.0819007941
0.0812234203
0.080544164
0.0798631215
0.0791803891
0.0784960629
0.0778102393
0.0771230144
0.0764344843
0.0757447453
0.0750538932
0.074362024
0.0736692336
0.0729756175
0.0722812715
0.0715862907
0.0708907705
0.070194806
0.0694984918
0.0688019227
0.068105193
0.0674083969
0.0667116281
0.0660149803
0.0653185468
0.0646224205
0.0639266941
0.0632314599
0.0625368098
0.0618428354
0.0611496278
0.060457278
0.0597658761
0.0590755121
0.0583862755
0.0576982553
0.05701154
0.0563262177
0.0556423758
0.0549601014
0.0542794808
0.0536006
0.0529235443
0.0522483984
0.0515752465
0.0509041721
0.050235258
0.0495685865
0.0489042392
0.048242297
0.0475828401
0.046925948
0.0462716995
0.0456201727
0.0449714449
0.0443255927
0.0436826919
0.0430428174
0.0424060434
0.0417724435
0.04114209
0.0405150548
0.0398914087
0.0392712216
0.0386545628
0.0380415004
0.0374321018
0.0368264333
0.0362245604
0.0356265477
0.0350324586
0.0344423558
0.0338563008
0.0332743544
0.032696576
0.0321230243
0.0315537569
0.0309888302
0.0304282998
0.0298722199
0.029320644
0.0287736242
0.0282312118
0.0276934567
0.0271604078
0.0266321129
0.0261086187
0.0255899705
0.0250762129
0.0245673889
0.0240635404
0.0235647083
0.0230709321
0.0225822503
0.0220986999
0.0216203169
0.0211471359
0.0206791905
0.0202165128
0.0197591337
0.019307083
0.0188603888
0.0184190785
0.0179831777
0.0175527109
0.0171277014
0.016708171
0.0162941402
0.0158856283
0.0154826531
0.0150852312
0.0146933777
0.0143071065
0.0139264301
0.0135513595
0.0131819045
0.0128180734
0.0124598732
0.0121073095
0.0117603864
0.0114191067
0.0110834718
0.0107534816
0.0104291348
0.0101104285
0.00979735831
0.00948991867
0.0091881024
0.00889190096
0.00860130437
0.00831630121
0.00803687863
0.00776302234
0.00749471662
0.00723194427
0.00697468669
0.00672292381
0.00647663413
0.00623579466
0.00600038102
0.00577036734
0.00554572631
0.00532642917
0.00511244572
0.00490374428
0.00470029176
0.0045020536
0.00430899378
0.00412107485
0.00393825791
0.00376050263
0.0035877672
0.0034200084
0.00325718156
0.00309924057
0.00294613791
0.00279782458
0.00265425021
0.00251536296
0.00238110958
0.00225143541
0.00212628437
0.00200559896
0.0018893203
0.00177738808
0.00166974059
0.00156631476
0.0014670461
0.00137186875
0.00128071547
0.00119351766
0.00111020534
0.00103070717
0.000954950461
0.000882861186
0.000814363966
0.000749382093
0.000687837533
0.000629650933
0.000574741628
0.00052302765
0.000474425735
0.000428851333
0.000386218613
0.000346440473
0.000309428552
0.000275093232
0.000243343653
0.000214087721
0.000187232116
0.000162682302
0.000140342539
0.000120115891
0.000101904237
8.56082807e-05
7.11275623e-05
5.83604691e-05
4.72042463e-05
3.75550082e-05
2.93077498e-05
2.23563585e-05
1.65936255e-05
1.19112583e-05
8.19989245e-06
5.34910407e-06
3.24742235e-06
1.78234225e-06
8.40337378e-07
3.06873016e-07
6.64193662e-08
2.46494022e-09
2.46987503e-09
6.68190815e-08
3.09957167e-07
8.52185035e-07
1.81471577e-06
3.31966026e-06
5.49001258e-06
8.44963537e-06
1.23232449e-05
1.72363959e-05
2.33154668e-05
3.06876438e-05
3.9480906e-05
4.98240092e-05
6.18464704e-05
7.56785519e-05
9.14512451e-05
0.000109296254
0.000129345981
0.000151733505
0.000176592572
0.000204057572
0.000234263527
0.00026734607
0.00030344143
0.000342686415
0.000385218393
0.000431175277
0.000480695503
0.000533918016
0.000590982254
0.000652028122
0.000717195982
0.000786626632
0.000860461286
0.000938841558
0.00102190944
0.00110980729
0.00120267781
0.00130066402
0.00140390924
0.0015125571
0.00162675147
0.00174663648
0.0018723565
0.00200405609
0.00214188001
0.00228597318
0.00243648069
0.00259354775
0.00275731967
0.00292794188
0.00310555985
0.00329031913
0.00348236528
0.00368184388
0.00388890052
0.00410368072
0.00432632999
0.00455699375
0.00479581734
0.005042946
0.00529852481
0.00556269872
0.00583561253
0.0061174108
0.00640823792
0.00670823802
0.007017555
0.00733633248
0.00766471378
0.0080028419
0.00835085952
0.00870890896
0.00907713215
0.00945567065
0.00984466558
0.0102442576
0.010654587
0.0110757935
0.0115080163
0.0119513942
0.0124060654
0.0128721675
0.0133498375
0.0138392118
0.0143404263
0.0148536162
0.015378916
0.0159164595
0.0164663797
0.0170288092
0.0176038794
0.0181917214
0.0187924653
0.0194062402
0.0200331746
0.0206733963
0.0213270318
0.0219942071
0.0226750471
0.0233696759
0.0240782164
0.0248007909
0.0255375205
0.0262885252
0.0270539242
0.0278338355
0.0286283761
0.029437662
0.0302618078
0.0311009274
0.0319551332
0.0328245366
0.0337092478
0.0346093759
0.0355250286
0.0364563125
0.0374033329
0.0383661939
0.0393449982
0.0403398472
0.0413508411
0.0423780787
0.0434216574
0.0444816732
0.0455582208
0.0466513934
0.0477612829
0.0488879797
0.0500315725
0.0511921489
0.0523697948
0.0535645947
0.0547766314
0.0560059862
0.057252739
0.058516968
0.0597987499
0.0610981595
0.0624152704
0.0637501543
0.0651028813
0.0664735199
0.0678621367
0.069268797
0.0706935639
0.0721364993
0.0735976629
0.0750771129
0.0765749057
0.0780910959
0.0796257362
0.0811788778
0.0827505697
0.0843408593
0.0859497921
0.0875774119
0.0892237603
0.0908888772
0.0925728008
0.0942755671
0.0959972103
0.0977377628
0.0994972547
0.101275715
0.103073169
0.104889642
0.106725156
0.108579733
0.11045339
0.112346143
0.114258008
0.116188997
0.118139121
0.120108387
0.122096802
0.12410437
0.126131095
0.128176975
0.130242009
0.132326193
0.13442952
0.136551984
0.138693572
0.140854274
0.143034075
0.145232957
0.147450902
0.149687889
0.151943896
0.154218896
0.156512864
0.158825768
0.161157578
0.16350826
0.165877778
0.168266093
0.170673166
0.173098954
0.175543413
0.178006495
0.180488152
0.182988333
0.185506983
0.188044049
0.190599472
0.193173191
0.195765147
0.198375273
0.201003503
0.20364977
0.206314002
0.208996126
0.211696068
0.214413749
0.217149091
0.219902012
0.222672428
0.225460252
0.228265398
0.231087775
0.233927289
0.236783847
0.239657352
0.242547705
0.245454805
0.248378548
0.25131883
0.254275543
0.257248577
0.260237821
0.263243161
0.26626448
0.269301662
0.272354586
0.27542313
0.278507169
0.281606577
0.284721227
0.287850987
0.290995724
0.294155306
0.297329594
0.300518451
0.303721736
0.306939307
0.310171018
0.313416723
0.316676274
0.319949521
0.323236311
0.326536489
0.3298499
0.333176385
0.336515784
0.339867935
0.343232675
0.346609838
0.349999255
0.353400758
0.356814176
0.360239336
0.363676061
0.367124177
0.370583505
0.374053864
0.377535073
0.381026947
0.384529303
0.388041951
0.391564705
0.395097374
0.398639764
0.402191684
0.405752937
0.409323327
0.412902655
0.416490721
0.420087324
0.423692261
0.427305326
0.430926314
0.434555017
0.438191226
0.441834731
0.445485319
0.449142777
0.452806891
0.456477445
0.46015422
0.463836999
0.467525561
0.471219684
0.474919147
0.478623725
0.482333193
0.486047324
0.489765892
0.493488668
0.497215421
0.500945921
0.504679936
0.508417233
0.512157577
0.515900733
0.519646465
0.523394536
0.527144707
0.53089674
0.534650394
0.538405428
0.542161601
0.545918669
0.54967639
0.553434518
0.557192809
0.560951016
0.564708894
0.568466194
0.572222669
0.57597807
0.579732147
0.58348465
0.58723533
0.590983934
0.594730211
0.598473909
0.602214775
0.605952555
0.609686997
0.613417845
0.617144847
0.620867745
0.624586287
0.628300215
0.632009274
0.635713209
0.639411762
0.643104677
0.646791697
0.650472566
0.654147025
0.657814819
0.66147569
0.66512938
0.668775633
0.672414189
0.676044793
0.679667187
0.683281113
0.686886314
0.690482534
0.694069514
0.697646999
0.701214732
0.704772455
0.708319914
0.711856853
0.715383014
0.718898144
0.722401988
0.725894291
0.729374798
0.732843256
0.736299412
0.739743013
0.743173806
0.74659154
0.749995964
0.753386827
0.756763879
0.760126871
0.763475553
0.766809678
0.770128999
0.773433268
0.776722241
0.779995671
0.783253315
0.78649493
0.789720272
0.7929291
0.796121173
0.799296252
0.802454098
0.805594473
0.808717139
0.811821862
0.814908405
0.817976537
0.821026024
0.824056634
0.827068138
0.830060306
0.833032911
0.835985725
0.838918524
0.841831083
0.84472318
0.847594593
0.850445102
0.853274487
0.856082533
0.858869022
0.86163374
0.864376475
0.867097014
0.869795148
0.872470668
0.875123367
0.877753039
0.880359481
0.882942491
0.885501868
0.888037413
0.890548929
0.89303622
0.895499093
0.897937355
0.900350817
0.902739289
0.905102585
0.907440521
0.909752912
0.912039579
0.914300341
0.916535021
0.918743444
0.920925436
0.923080826
0.925209444
0.927311122
0.929385695
0.931432998
0.933452872
0.935445156
0.937409692
0.939346326
0.941254904
0.943135276
0.944987292
0.946810805
0.948605671
0.950371748
0.952108895
0.953816975
0.955495852
0.957145392
0.958765464
0.96035594
0.961916692
0.963447596
0.964948531
0.966419376
0.967860015
0.969270332
0.970650215
0.971999554
0.973318241
0.97460617
0.975863239
0.977089347
0.978284396
0.97944829
0.980580936
0.981682244
0.982752125
0.983790493
0.984797266
0.985772362
0.986715703
0.987627214
0.988506821
0.989354454
0.990170046
0.990953529
0.991704842
0.992423923
0.993110716
0.993765165
0.994387218
0.994976824
0.995533936
0.996058509
0.996550501
0.997009872
0.997436586
0.997830608
0.998191906
0.998520452
0.998816219
0.999079182
0.999309322
0.999506619
0.999671057
0.999802624
0.999901308
0.999967102
1

shape_id 2
num_samples 1000
0.5
0
0
497
-0.5
0
0
497


[SIGNATURE]
# This is the hash of the Pulseq file, calculated right before the [SIGNATURE] section was added
# It can be reproduced/verified with md5sum if the file trimmed to the position right above [SIGNATURE]
# The new line character preceding [SIGNATURE] BELONGS to the signature (and needs to be stripped away for recalculating/verification)
Type md5
Hash a77280cf3f50e67c24df6e519c21b441
