# Pulseq sequence file
# Created by PyPulseq

[VERSION]
major 1
minor 5
revision 0

[DEFINITIONS]
AdcRasterTime 1e-07 
BlockDurationRaster 1e-05 
GradientRasterTime 1e-05 
RadiofrequencyRasterTime 1e-06 
TotalDuration 150 

# Format of blocks:
# NUM DUR RF  GX  GY  GZ  ADC  EXT
[BLOCKS]
   1 1036   1   0   0   0  0  0
   2 94685   0   0   1   0  0  0
   3  73   2   0   0   0  0  0
   4 541   0   2   2   4  1  0
   5  73   3   3   3   5  0  1
   6 541   0   6   2   4  2  0
   7  73   4   7   3   5  0  1
   8 541   0   8   2   4  3  0
   9  73   5   9   3   5  0  1
  10 541   0  10   2   4  4  0
  11  73   6  11   3   5  0  1
  12 541   0  12   2   4  5  0
  13  73   7  13   3   5  0  1
  14 541   0  14   2   4  6  0
  15  73   8  15   3   5  0  1
  16 541   0  16   2   4  7  0
  17  73   9  17   3   5  0  1
  18 541   0  18   2   4  8  0
  19  73  10  19   3   5  0  1
  20 541   0  20   2   4  9  0
  21  73  11  21   3   5  0  1
  22 541   0  22   2   4 10  0
  23  73   7  23   3   5  0  1
  24 541   0  24   2   4  6  0
  25  73  12  25   3   5  0  1
  26 541   0  26   2   4 11  0
  27  73  13  27   3   5  0  1
  28 541   0  28   2   4 12  0
  29  73  14  29   3   5  0  1
  30 541   0  30   2   4 13  0
  31  73  15  31   3   5  0  1
  32 541   0  32   2   4 14  0
  33  73   2  33   3   5  0  1
  34 541   0  34   2   4  1  0
  35  73  16  35   3   5  0  1
  36 541   0  36   2   4 15  0
  37  73  17  37   3   5  0  1
  38 541   0  38   2   4 16  0
  39  73  14  39   3   5  0  1
  40 541   0  40   2   4 13  0
  41  73  18  41   3   5  0  1
  42 541   0  42   2   4 17  0
  43  73   6  43   3   5  0  1
  44 541   0  44   2   4  5  0
  45  73  19  45   3   5  0  1
  46 541   0  46   2   4 18  0
  47  73  20  47   3   5  0  1
  48 541   0  48   2   4 19  0
  49  73  10  49   3   5  0  1
  50 541   0  50   2   4  9  0
  51  73  21  51   3   5  0  1
  52 541   0  52   2   4 20  0
  53  73  11  52   3   5  0  1
  54 541   0  51   2   4 10  0
  55  73  19  50   3   5  0  1
  56 541   0  49   2   4 18  0
  57  73  22  48   3   5  0  1
  58 541   0  47   2   4 21  0
  59  73   5  46   3   5  0  1
  60 541   0  45   2   4  4  0
  61  73  23  44   3   5  0  1
  62 541   0  43   2   4 22  0
  63  73  15  42   3   5  0  1
  64 541   0  41   2   4 14  0
  65  73  16  40   3   5  0  1
  66 541   0  39   2   4 15  0
  67  73  24  38   3   5  0  1
  68 541   0  37   2   4 23  0
  69  73   3  36   3   5  0  1
  70 541   0  35   2   4  2  0
  71  73  23  34   3   5  0  1
  72 541   0  33   2   4 22  0
  73  73  18  32   3   5  0  1
  74 541   0  31   2   4 17  0
  75  73  12  30   3   5  0  1
  76 541   0  29   2   4 11  0
  77  73  25  28   3   5  0  1
  78 541   0  27   2   4 24  0
  79  73   8  26   3   5  0  1
  80 541   0  25   2   4  7  0
  81  73  21  24   3   5  0  1
  82 541   0  23   2   4 20  0
  83  73  21  22   3   5  0  1
  84 541   0  21   2   4 20  0
  85  73   8  20   3   5  0  1
  86 541   0  19   2   4  7  0
  87  73  25  18   3   5  0  1
  88 541   0  17   2   4 24  0
  89  73  12  16   3   5  0  1
  90 541   0  15   2   4 11  0
  91  73  18  14   3   5  0  1
  92 541   0  13   2   4 17  0
  93  73  23  12   3   5  0  1
  94 541   0  11   2   4 22  0
  95  73   3  10   3   5  0  1
  96 541   0   9   2   4  2  0
  97  73  24   8   3   5  0  1
  98 541   0   7   2   4 23  0
  99 124807   0   0   0   5  0  3
 100 1036   1   0   0   0  0  0
 101 94685   0   0   1   0  0  0
 102  73   2   0   0   0  0  0
 103 541   0   2  53   4  1  0
 104  73   3   3  54   5  0  1
 105 541   0   6  53   4  2  0
 106  73   4   7  54   5  0  1
 107 541   0   8  53   4  3  0
 108  73   5   9  54   5  0  1
 109 541   0  10  53   4  4  0
 110  73   6  11  54   5  0  1
 111 541   0  12  53   4  5  0
 112  73   7  13  54   5  0  1
 113 541   0  14  53   4  6  0
 114  73   8  15  54   5  0  1
 115 541   0  16  53   4  7  0
 116  73   9  17  54   5  0  1
 117 541   0  18  53   4  8  0
 118  73  10  19  54   5  0  1
 119 541   0  20  53   4  9  0
 120  73  11  21  54   5  0  1
 121 541   0  22  53   4 10  0
 122  73   7  23  54   5  0  1
 123 541   0  24  53   4  6  0
 124  73  12  25  54   5  0  1
 125 541   0  26  53   4 11  0
 126  73  13  27  54   5  0  1
 127 541   0  28  53   4 12  0
 128  73  14  29  54   5  0  1
 129 541   0  30  53   4 13  0
 130  73  15  31  54   5  0  1
 131 541   0  32  53   4 14  0
 132  73   2  33  54   5  0  1
 133 541   0  34  53   4  1  0
 134  73  16  35  54   5  0  1
 135 541   0  36  53   4 15  0
 136  73  17  37  54   5  0  1
 137 541   0  38  53   4 16  0
 138  73  14  39  54   5  0  1
 139 541   0  40  53   4 13  0
 140  73  18  41  54   5  0  1
 141 541   0  42  53   4 17  0
 142  73   6  43  54   5  0  1
 143 541   0  44  53   4  5  0
 144  73  19  45  54   5  0  1
 145 541   0  46  53   4 18  0
 146  73  20  47  54   5  0  1
 147 541   0  48  53   4 19  0
 148  73  10  49  54   5  0  1
 149 541   0  50  53   4  9  0
 150  73  21  51  54   5  0  1
 151 541   0  52  53   4 20  0
 152  73  11  52  54   5  0  1
 153 541   0  51  53   4 10  0
 154  73  19  50  54   5  0  1
 155 541   0  49  53   4 18  0
 156  73  22  48  54   5  0  1
 157 541   0  47  53   4 21  0
 158  73   5  46  54   5  0  1
 159 541   0  45  53   4  4  0
 160  73  23  44  54   5  0  1
 161 541   0  43  53   4 22  0
 162  73  15  42  54   5  0  1
 163 541   0  41  53   4 14  0
 164  73  16  40  54   5  0  1
 165 541   0  39  53   4 15  0
 166  73  24  38  54   5  0  1
 167 541   0  37  53   4 23  0
 168  73   3  36  54   5  0  1
 169 541   0  35  53   4  2  0
 170  73  23  34  54   5  0  1
 171 541   0  33  53   4 22  0
 172  73  18  32  54   5  0  1
 173 541   0  31  53   4 17  0
 174  73  12  30  54   5  0  1
 175 541   0  29  53   4 11  0
 176  73  25  28  54   5  0  1
 177 541   0  27  53   4 24  0
 178  73   8  26  54   5  0  1
 179 541   0  25  53   4  7  0
 180  73  21  24  54   5  0  1
 181 541   0  23  53   4 20  0
 182  73  21  22  54   5  0  1
 183 541   0  21  53   4 20  0
 184  73   8  20  54   5  0  1
 185 541   0  19  53   4  7  0
 186  73  25  18  54   5  0  1
 187 541   0  17  53   4 24  0
 188  73  12  16  54   5  0  1
 189 541   0  15  53   4 11  0
 190  73  18  14  54   5  0  1
 191 541   0  13  53   4 17  0
 192  73  23  12  54   5  0  1
 193 541   0  11  53   4 22  0
 194  73   3  10  54   5  0  1
 195 541   0   9  53   4  2  0
 196  73  24   8  54   5  0  1
 197 541   0   7  53   4 23  0
 198 124807   0   0   0   5  0  3
 199 1036   1   0   0   0  0  0
 200 94685   0   0   1   0  0  0
 201  73   2   0   0   0  0  0
 202 541   0   2  55   4  1  0
 203  73   3   3  56   5  0  1
 204 541   0   6  55   4  2  0
 205  73   4   7  56   5  0  1
 206 541   0   8  55   4  3  0
 207  73   5   9  56   5  0  1
 208 541   0  10  55   4  4  0
 209  73   6  11  56   5  0  1
 210 541   0  12  55   4  5  0
 211  73   7  13  56   5  0  1
 212 541   0  14  55   4  6  0
 213  73   8  15  56   5  0  1
 214 541   0  16  55   4  7  0
 215  73   9  17  56   5  0  1
 216 541   0  18  55   4  8  0
 217  73  10  19  56   5  0  1
 218 541   0  20  55   4  9  0
 219  73  11  21  56   5  0  1
 220 541   0  22  55   4 10  0
 221  73   7  23  56   5  0  1
 222 541   0  24  55   4  6  0
 223  73  12  25  56   5  0  1
 224 541   0  26  55   4 11  0
 225  73  13  27  56   5  0  1
 226 541   0  28  55   4 12  0
 227  73  14  29  56   5  0  1
 228 541   0  30  55   4 13  0
 229  73  15  31  56   5  0  1
 230 541   0  32  55   4 14  0
 231  73   2  33  56   5  0  1
 232 541   0  34  55   4  1  0
 233  73  16  35  56   5  0  1
 234 541   0  36  55   4 15  0
 235  73  17  37  56   5  0  1
 236 541   0  38  55   4 16  0
 237  73  14  39  56   5  0  1
 238 541   0  40  55   4 13  0
 239  73  18  41  56   5  0  1
 240 541   0  42  55   4 17  0
 241  73   6  43  56   5  0  1
 242 541   0  44  55   4  5  0
 243  73  19  45  56   5  0  1
 244 541   0  46  55   4 18  0
 245  73  20  47  56   5  0  1
 246 541   0  48  55   4 19  0
 247  73  10  49  56   5  0  1
 248 541   0  50  55   4  9  0
 249  73  21  51  56   5  0  1
 250 541   0  52  55   4 20  0
 251  73  11  52  56   5  0  1
 252 541   0  51  55   4 10  0
 253  73  19  50  56   5  0  1
 254 541   0  49  55   4 18  0
 255  73  22  48  56   5  0  1
 256 541   0  47  55   4 21  0
 257  73   5  46  56   5  0  1
 258 541   0  45  55   4  4  0
 259  73  23  44  56   5  0  1
 260 541   0  43  55   4 22  0
 261  73  15  42  56   5  0  1
 262 541   0  41  55   4 14  0
 263  73  16  40  56   5  0  1
 264 541   0  39  55   4 15  0
 265  73  24  38  56   5  0  1
 266 541   0  37  55   4 23  0
 267  73   3  36  56   5  0  1
 268 541   0  35  55   4  2  0
 269  73  23  34  56   5  0  1
 270 541   0  33  55   4 22  0
 271  73  18  32  56   5  0  1
 272 541   0  31  55   4 17  0
 273  73  12  30  56   5  0  1
 274 541   0  29  55   4 11  0
 275  73  25  28  56   5  0  1
 276 541   0  27  55   4 24  0
 277  73   8  26  56   5  0  1
 278 541   0  25  55   4  7  0
 279  73  21  24  56   5  0  1
 280 541   0  23  55   4 20  0
 281  73  21  22  56   5  0  1
 282 541   0  21  55   4 20  0
 283  73   8  20  56   5  0  1
 284 541   0  19  55   4  7  0
 285  73  25  18  56   5  0  1
 286 541   0  17  55   4 24  0
 287  73  12  16  56   5  0  1
 288 541   0  15  55   4 11  0
 289  73  18  14  56   5  0  1
 290 541   0  13  55   4 17  0
 291  73  23  12  56   5  0  1
 292 541   0  11  55   4 22  0
 293  73   3  10  56   5  0  1
 294 541   0   9  55   4  2  0
 295  73  24   8  56   5  0  1
 296 541   0   7  55   4 23  0
 297 124807   0   0   0   5  0  3
 298 1036   1   0   0   0  0  0
 299 94685   0   0   1   0  0  0
 300  73   2   0   0   0  0  0
 301 541   0   2  57   4  1  0
 302  73   3   3  58   5  0  1
 303 541   0   6  57   4  2  0
 304  73   4   7  58   5  0  1
 305 541   0   8  57   4  3  0
 306  73   5   9  58   5  0  1
 307 541   0  10  57   4  4  0
 308  73   6  11  58   5  0  1
 309 541   0  12  57   4  5  0
 310  73   7  13  58   5  0  1
 311 541   0  14  57   4  6  0
 312  73   8  15  58   5  0  1
[RF]
1      563.681 1 2 3 5125 100 0 0 0 0 i
2      194.444 4 5 6 50 610 0 0 0 0 e
3      194.444 4 5 6 50 610 0 0 0 2.04204 e
4      194.444 4 5 6 50 610 0 0 0 6.12611 e
5      194.444 4 5 6 50 610 0 0 0 5.96903 e
6      194.444 4 5 6 50 610 0 0 0 1.5708 e
7      194.444 4 5 6 50 610 0 0 0 5.49779 e
8      194.444 4 5 6 50 610 0 0 0 5.18363 e
9      194.444 4 5 6 50 610 0 0 0 0.628319 e
10      194.444 4 5 6 50 610 0 0 0 4.39823 e
11      194.444 4 5 6 50 610 0 0 0 3.92699 e
12      194.444 4 5 6 50 610 0 0 0 2.82743 e
13      194.444 4 5 6 50 610 0 0 0 2.19911 e
14      194.444 4 5 6 50 610 0 0 0 3.61283 e
15      194.444 4 5 6 50 610 0 0 0 0.785398 e
16      194.444 4 5 6 50 610 0 0 0 1.25664 e
17      194.444 4 5 6 50 610 0 0 0 4.55531 e
18      194.444 4 5 6 50 610 0 0 0 4.71239 e
19      194.444 4 5 6 50 610 0 0 0 0.471239 e
20      194.444 4 5 6 50 610 0 0 0 1.41372 e
21      194.444 4 5 6 50 610 0 0 0 3.14159 e
22      194.444 4 5 6 50 610 0 0 0 5.34071 e
23      194.444 4 5 6 50 610 0 0 0 2.35619 e
24      194.444 4 5 6 50 610 0 0 0 3.76991 e
25      194.444 4 5 6 50 610 0 0 0 2.98451 e

# Format of arbitrary gradients:
#   time_shape_id of 0 means default timing (stepping with grad_raster starting at 1/2 of grad_raster)
# id amplitude first last amp_shape_id time_shape_id delay
# ..      Hz/m  Hz/m Hz/m        ..         ..          us
[GRADIENTS]
4      -708063            0      49824.6 7 8 0
5       984720      49824.6            0 9 10 0

# Format of trapezoid gradients:
# id amplitude rise flat fall delay
# ..      Hz/m   us   us   us    us
[TRAP]
 1       102459 240 9520 240   0
 2       694444 180    0 180   0
 3      -694444 180    0 180   0
 6       665509 180    0 180   0
 7      -665509 180    0 180   0
 8       636574 180    0 180   0
 9      -636574 180    0 180   0
10       607639 180    0 180   0
11      -607639 180    0 180   0
12       578704 180    0 180   0
13      -578704 180    0 180   0
14       549769 180    0 180   0
15      -549769 180    0 180   0
16       520833 180    0 180   0
17      -520833 180    0 180   0
18       491898 180    0 180   0
19      -491898 180    0 180   0
20       462963 180    0 180   0
21      -462963 180    0 180   0
22       434028 180    0 180   0
23      -434028 180    0 180   0
24       405093 180    0 180   0
25      -405093 180    0 180   0
26       376157 180    0 180   0
27      -376157 180    0 180   0
28       347222 180    0 180   0
29      -347222 180    0 180   0
30       318287 180    0 180   0
31      -318287 180    0 180   0
32       289352 180    0 180   0
33      -289352 180    0 180   0
34       260417 180    0 180   0
35      -260417 180    0 180   0
36       231481 180    0 180   0
37      -231481 180    0 180   0
38       202546 180    0 180   0
39      -202546 180    0 180   0
40       173611 180    0 180   0
41      -173611 180    0 180   0
42       144676 180    0 180   0
43      -144676 180    0 180   0
44       115741 180    0 180   0
45      -115741 180    0 180   0
46      86805.6 180    0 180   0
47     -86805.6 180    0 180   0
48      57870.4 180    0 180   0
49     -57870.4 180    0 180   0
50      28935.2 180    0 180   0
51     -28935.2 180    0 180   0
52           -0 180    0 180   0
53       671296 180    0 180   0
54      -671296 180    0 180   0
55       648148 180    0 180   0
56      -648148 180    0 180   0
57       625000 180    0 180   0
58      -625000 180    0 180   0
59       601852 180    0 180   0
60      -601852 180    0 180   0
61       555556 180    0 180   0
62      -555556 180    0 180   0
63       532407 180    0 180   0
64      -532407 180    0 180   0
65       509259 180    0 180   0
66      -509259 180    0 180   0
67       486111 180    0 180   0
68      -486111 180    0 180   0
69       439815 180    0 180   0
70      -439815 180    0 180   0
71       416667 180    0 180   0
72      -416667 180    0 180   0
73       393519 180    0 180   0
74      -393519 180    0 180   0
75       370370 180    0 180   0
76      -370370 180    0 180   0
77       324074 180    0 180   0
78      -324074 180    0 180   0
79       300926 180    0 180   0
80      -300926 180    0 180   0
81       277778 180    0 180   0
82      -277778 180    0 180   0
83       254630 180    0 180   0
84      -254630 180    0 180   0
85       208333 180    0 180   0
86      -208333 180    0 180   0
87       185185 180    0 180   0
88      -185185 180    0 180   0
89       162037 180    0 180   0
90      -162037 180    0 180   0
91       138889 180    0 180   0
92      -138889 180    0 180   0
93      92592.6 180    0 180   0
94     -92592.6 180    0 180   0
95      69444.4 180    0 180   0
96     -69444.4 180    0 180   0
97      46296.3 180    0 180   0
98     -46296.3 180    0 180   0
99      23148.1 180    0 180   0
100     -23148.1 180    0 180   0

# Format of ADC events:
# id num dwell delay freqPPM phasePPM freq phase phase_id
# ..  ..    ns    us     ppm  rad/MHz   Hz   rad       ..
[ADC]
1 64 78400 380 0 0 0 0 0
2 64 78400 380 0 0 0 2.04204 0
3 64 78400 380 0 0 0 6.12611 0
4 64 78400 380 0 0 0 5.96903 0
5 64 78400 380 0 0 0 1.5708 0
6 64 78400 380 0 0 0 5.49779 0
7 64 78400 380 0 0 0 5.18363 0
8 64 78400 380 0 0 0 0.628319 0
9 64 78400 380 0 0 0 4.39823 0
10 64 78400 380 0 0 0 3.92699 0
11 64 78400 380 0 0 0 2.82743 0
12 64 78400 380 0 0 0 2.19911 0
13 64 78400 380 0 0 0 3.61283 0
14 64 78400 380 0 0 0 0.785398 0
15 64 78400 380 0 0 0 1.25664 0
16 64 78400 380 0 0 0 4.55531 0
17 64 78400 380 0 0 0 4.71239 0
18 64 78400 380 0 0 0 0.471239 0
19 64 78400 380 0 0 0 1.41372 0
20 64 78400 380 0 0 0 3.14159 0
21 64 78400 380 0 0 0 5.34071 0
22 64 78400 380 0 0 0 2.35619 0
23 64 78400 380 0 0 0 3.76991 0
24 64 78400 380 0 0 0 2.98451 0

# Format of extension lists:
# id type ref next_id
# next_id of 0 terminates the list
# Extension list is followed by extension specifications
[EXTENSIONS]
1 1 1 0
2 2 1 0
3 1 2 2

# Extension specification for setting labels:
# id set labelstring
extension LABELSET 2
1 0 PAR

# Extension specification for setting labels:
# id set labelstring
extension LABELINC 1
1 1 PAR
2 1 LIN

# Sequence Shapes
[SHAPES]

shape_id 1
num_samples 1024
0.0332689869
0.0335360565
0.0338052677
0.0340766374
0.034350183
0.0346259218
0.0349038714
0.0351840494
0.0354664736
0.0357511619
0.0360381325
0.0363274036
0.0366189935
0.0369129207
0.0372092039
0.037507862
0.0378089138
0.0381123785
0.0384182752
0.0387266236
0.0390374429
0.0393507531
0.039666574
0.0399849255
0.0403058279
0.0406293015
0.0409553668
0.0412840445
0.0416153554
0.0419493204
0.0422859608
0.0426252977
0.0429673529
0.0433121477
0.0436597042
0.0440100443
0.0443631901
0.0447191639
0.0450779884
0.0454396862
0.0458042801
0.0461717932
0.0465422487
0.04691567
0.0472920807
0.0476715046
0.0480539656
0.0484394879
0.0488280958
0.0492198138
0.0496146666
0.0500126791
0.0504138764
0.0508182839
0.0512259269
0.0516368312
0.0520510227
0.0524685274
0.0528893716
0.0533135818
0.0537411847
0.0541722072
0.0546066763
0.0550446195
0.0554860642
0.0559310381
0.0563795693
0.0568316859
0.0572874161
0.0577467888
0.0582098326
0.0586765766
0.05914705
0.0596212824
0.0600993035
0.0605811431
0.0610668315
0.0615563991
0.0620498764
0.0625472944
0.0630486841
0.0635540768
0.0640635041
0.0645769979
0.0650945902
0.0656163132
0.0661421996
0.066672282
0.0672065935
0.0677451674
0.0682880373
0.0688352368
0.0693868001
0.0699427613
0.0705031552
0.0710680164
0.07163738
0.0722112814
0.0727897561
0.0733728401
0.0739605693
0.0745529803
0.0751501096
0.0757519943
0.0763586715
0.0769701786
0.0775865535
0.0782078342
0.078834059
0.0794652664
0.0801014955
0.0807427852
0.0813891752
0.0820407051
0.0826974149
0.083359345
0.0840265359
0.0846990287
0.0853768644
0.0860600847
0.0867487312
0.0874428461
0.0881424718
0.0888476509
0.0895584266
0.0902748421
0.090996941
0.0917247674
0.0924583653
0.0931977795
0.0939430547
0.0946942361
0.0954513694
0.0962145002
0.0969836748
0.0977589396
0.0985403415
0.0993279274
0.100121745
0.100921842
0.101728266
0.102541066
0.103360291
0.10418599
0.105018212
0.105857006
0.106702424
0.107554515
0.108413331
0.109278922
0.11015134
0.111030636
0.111916863
0.112810074
0.11371032
0.114617656
0.115532135
0.11645381
0.117382736
0.118318968
0.11926256
0.120213568
0.121172048
0.122138054
0.123111644
0.124092875
0.125081803
0.126078485
0.127082981
0.128095347
0.129115642
0.130143924
0.131180254
0.132224691
0.133277294
0.134338124
0.135407241
0.136484707
0.137570582
0.138664928
0.139767808
0.140879283
0.141999417
0.143128272
0.144265912
0.145412401
0.146567803
0.147732182
0.148905604
0.150088132
0.151279834
0.152480774
0.15369102
0.154910637
0.156139692
0.157378253
0.158626388
0.159884164
0.161151649
0.162428912
0.163716022
0.165013049
0.166320061
0.167637128
0.168964322
0.170301712
0.171649368
0.173007364
0.174375768
0.175754655
0.177144094
0.178544159
0.179954923
0.181376458
0.182808837
0.184252134
0.185706423
0.187171777
0.18864827
0.190135978
0.191634975
0.193145335
0.194667135
0.196200449
0.197745353
0.199301923
0.200870235
0.202450366
0.204042391
0.205646387
0.207262432
0.208890602
0.210530974
0.212183626
0.213848635
0.215526078
0.217216033
0.218918579
0.220633792
0.222361751
0.224102534
0.225856219
0.227622884
0.229402608
0.231195467
0.233001542
0.234820909
0.236653648
0.238499836
0.240359551
0.242232872
0.244119877
0.246020643
0.247935248
0.249863771
0.251806288
0.253762876
0.255733614
0.257718579
0.259717846
0.261731492
0.263759595
0.265802229
0.267859471
0.269931395
0.272018078
0.274119594
0.276236017
0.278367421
0.280513879
0.282675465
0.284852251
0.287044308
0.28925171
0.291474525
0.293712826
0.29596668
0.298236158
0.300521328
0.302822257
0.305139012
0.307471659
0.309820264
0.31218489
0.314565602
0.316962461
0.31937553
0.32180487
0.324250539
0.326712596
0.329191099
0.331686104
0.334197666
0.336725838
0.339270674
0.341832225
0.34441054
0.347005668
0.349617656
0.35224655
0.354892392
0.357555226
0.360235093
0.362932031
0.365646077
0.368377267
0.371125634
0.37389121
0.376674025
0.379474106
0.382291478
0.385126166
0.38797819
0.390847569
0.393734319
0.396638455
0.399559989
0.402498929
0.405455283
0.408429054
0.411420243
0.414428848
0.417454866
0.42049829
0.423559107
0.426637306
0.429732869
0.432845777
0.435976007
0.439123531
0.442288321
0.445470342
0.448669558
0.451885928
0.455119406
0.458369945
0.461637493
0.464921992
0.468223383
0.471541601
0.474876576
0.478228236
0.481596503
0.484981293
0.488382521
0.491800095
0.495233918
0.498683889
0.502149901
0.505631842
0.509129597
0.512643044
0.516172054
0.519716496
0.523276231
0.526851114
0.530440997
0.534045724
0.537665134
0.541299058
0.544947324
0.548609751
0.552286154
0.55597634
0.559680111
0.56339726
0.567127575
0.570870838
0.574626822
0.578395295
0.582176018
0.585968742
0.589773215
0.593589174
0.597416351
0.60125447
0.605103247
0.60896239
0.612831601
0.616710572
0.620598988
0.624496529
0.628402861
0.632317648
0.636240541
0.640171187
0.644109222
0.648054274
0.652005963
0.655963902
0.659927693
0.663896932
0.667871204
0.671850087
0.67583315
0.679819954
0.683810051
0.687802983
0.691798285
0.695795482
0.699794092
0.703793623
0.707793574
0.711793437
0.715792693
0.719790815
0.72378727
0.727781513
0.731772991
0.735761144
0.739745403
0.74372519
0.747699918
0.751668994
0.755631815
0.75958777
0.76353624
0.767476599
0.771408212
0.775330437
0.779242625
0.783144118
0.787034251
0.790912353
0.794777744
0.79862974
0.802467648
0.806290769
0.810098398
0.813889824
0.817664329
0.82142119
0.825159679
0.828879062
0.8325786
0.83625755
0.839915163
0.843550688
0.847163367
0.850752441
0.854317145
0.857856714
0.861370378
0.864857364
0.868316898
0.871748204
0.875150505
0.878523021
0.881864972
0.885175579
0.88845406
0.891699636
0.894911527
0.898088953
0.901231139
0.904337309
0.907406688
0.910438507
0.913431998
0.916386396
0.919300941
0.922174877
0.925007452
0.927797919
0.930545538
0.933249573
0.935909296
0.938523985
0.941092926
0.943615411
0.946090742
0.948518228
0.95089719
0.953226954
0.95550686
0.957736256
0.9599145
0.962040964
0.96411503
0.966136091
0.968103555
0.97001684
0.971875379
0.973678618
0.975426017
0.977117052
0.97875121
0.980327998
0.981846934
0.983307554
0.984709412
0.986052074
0.987335127
0.988558172
0.98972083
0.990822739
0.991863554
0.992842948
0.993760615
0.994616265
0.995409629
0.996140454
0.996808511
0.997413587
0.997955489
0.998434046
0.998849105
0.999200533
0.999488218
0.999712069
0.999872014
0.999968001
1
0.999968001
0.999872014
0.999712069
0.999488218
0.999200533
0.998849105
0.998434046
0.997955489
0.997413587
0.996808511
0.996140454
0.995409629
0.994616265
0.993760615
0.992842948
0.991863554
0.990822739
0.98972083
0.988558172
0.987335127
0.986052074
0.984709412
0.983307554
0.981846934
0.980327998
0.97875121
0.977117052
0.975426017
0.973678618
0.971875379
0.97001684
0.968103555
0.966136091
0.96411503
0.962040964
0.9599145
0.957736256
0.95550686
0.953226954
0.95089719
0.948518228
0.946090742
0.943615411
0.941092926
0.938523985
0.935909296
0.933249573
0.930545538
0.927797919
0.925007452
0.922174877
0.919300941
0.916386396
0.913431998
0.910438507
0.907406688
0.904337309
0.901231139
0.898088953
0.894911527
0.891699636
0.88845406
0.885175579
0.881864972
0.878523021
0.875150505
0.871748204
0.868316898
0.864857364
0.861370378
0.857856714
0.854317145
0.850752441
0.847163367
0.843550688
0.839915163
0.83625755
0.8325786
0.828879062
0.825159679
0.82142119
0.817664329
0.813889824
0.810098398
0.806290769
0.802467648
0.79862974
0.794777744
0.790912353
0.787034251
0.783144118
0.779242625
0.775330437
0.771408212
0.767476599
0.76353624
0.75958777
0.755631815
0.751668994
0.747699918
0.74372519
0.739745403
0.735761144
0.731772991
0.727781513
0.72378727
0.719790815
0.715792693
0.711793437
0.707793574
0.703793623
0.699794092
0.695795482
0.691798285
0.687802983
0.683810051
0.679819954
0.67583315
0.671850087
0.667871204
0.663896932
0.659927693
0.655963902
0.652005963
0.648054274
0.644109222
0.640171187
0.636240541
0.632317648
0.628402861
0.624496529
0.620598988
0.616710572
0.612831601
0.60896239
0.605103247
0.60125447
0.597416351
0.593589174
0.589773215
0.585968742
0.582176018
0.578395295
0.574626822
0.570870838
0.567127575
0.56339726
0.559680111
0.55597634
0.552286154
0.548609751
0.544947324
0.541299058
0.537665134
0.534045724
0.530440997
0.526851114
0.523276231
0.519716496
0.516172054
0.512643044
0.509129597
0.505631842
0.502149901
0.498683889
0.495233918
0.491800095
0.488382521
0.484981293
0.481596503
0.478228236
0.474876576
0.471541601
0.468223383
0.464921992
0.461637493
0.458369945
0.455119406
0.451885928
0.448669558
0.445470342
0.442288321
0.439123531
0.435976007
0.432845777
0.429732869
0.426637306
0.423559107
0.42049829
0.417454866
0.414428848
0.411420243
0.408429054
0.405455283
0.402498929
0.399559989
0.396638455
0.393734319
0.390847569
0.38797819
0.385126166
0.382291478
0.379474106
0.376674025
0.37389121
0.371125634
0.368377267
0.365646077
0.362932031
0.360235093
0.357555226
0.354892392
0.35224655
0.349617656
0.347005668
0.34441054
0.341832225
0.339270674
0.336725838
0.334197666
0.331686104
0.329191099
0.326712596
0.324250539
0.32180487
0.31937553
0.316962461
0.314565602
0.31218489
0.309820264
0.307471659
0.305139012
0.302822257
0.300521328
0.298236158
0.29596668
0.293712826
0.291474525
0.28925171
0.287044308
0.284852251
0.282675465
0.280513879
0.278367421
0.276236017
0.274119594
0.272018078
0.269931395
0.267859471
0.265802229
0.263759595
0.261731492
0.259717846
0.257718579
0.255733614
0.253762876
0.251806288
0.249863771
0.247935248
0.246020643
0.244119877
0.242232872
0.240359551
0.238499836
0.236653648
0.234820909
0.233001542
0.231195467
0.229402608
0.227622884
0.225856219
0.224102534
0.222361751
0.220633792
0.218918579
0.217216033
0.215526078
0.213848635
0.212183626
0.210530974
0.208890602
0.207262432
0.205646387
0.204042391
0.202450366
0.200870235
0.199301923
0.197745353
0.196200449
0.194667135
0.193145335
0.191634975
0.190135978
0.18864827
0.187171777
0.185706423
0.184252134
0.182808837
0.181376458
0.179954923
0.178544159
0.177144094
0.175754655
0.174375768
0.173007364
0.171649368
0.170301712
0.168964322
0.167637128
0.166320061
0.165013049
0.163716022
0.162428912
0.161151649
0.159884164
0.158626388
0.157378253
0.156139692
0.154910637
0.15369102
0.152480774
0.151279834
0.150088132
0.148905604
0.147732182
0.146567803
0.145412401
0.144265912
0.143128272
0.141999417
0.140879283
0.139767808
0.138664928
0.137570582
0.136484707
0.135407241
0.134338124
0.133277294
0.132224691
0.131180254
0.130143924
0.129115642
0.128095347
0.127082981
0.126078485
0.125081803
0.124092875
0.123111644
0.122138054
0.121172048
0.120213568
0.11926256
0.118318968
0.117382736
0.11645381
0.115532135
0.114617656
0.11371032
0.112810074
0.111916863
0.111030636
0.11015134
0.109278922
0.108413331
0.107554515
0.106702424
0.105857006
0.105018212
0.10418599
0.103360291
0.102541066
0.101728266
0.100921842
0.100121745
0.0993279274
0.0985403415
0.0977589396
0.0969836748
0.0962145002
0.0954513694
0.0946942361
0.0939430547
0.0931977795
0.0924583653
0.0917247674
0.090996941
0.0902748421
0.0895584266
0.0888476509
0.0881424718
0.0874428461
0.0867487312
0.0860600847
0.0853768644
0.0846990287
0.0840265359
0.083359345
0.0826974149
0.0820407051
0.0813891752
0.0807427852
0.0801014955
0.0794652664
0.078834059
0.0782078342
0.0775865535
0.0769701786
0.0763586715
0.0757519943
0.0751501096
0.0745529803
0.0739605693
0.0733728401
0.0727897561
0.0722112814
0.07163738
0.0710680164
0.0705031552
0.0699427613
0.0693868001
0.0688352368
0.0682880373
0.0677451674
0.0672065935
0.066672282
0.0661421996
0.0656163132
0.0650945902
0.0645769979
0.0640635041
0.0635540768
0.0630486841
0.0625472944
0.0620498764
0.0615563991
0.0610668315
0.0605811431
0.0600993035
0.0596212824
0.05914705
0.0586765766
0.0582098326
0.0577467888
0.0572874161
0.0568316859
0.0563795693
0.0559310381
0.0554860642
0.0550446195
0.0546066763
0.0541722072
0.0537411847
0.0533135818
0.0528893716
0.0524685274
0.0520510227
0.0516368312
0.0512259269
0.0508182839
0.0504138764
0.0500126791
0.0496146666
0.0492198138
0.0488280958
0.0484394879
0.0480539656
0.0476715046
0.0472920807
0.04691567
0.0465422487
0.0461717932
0.0458042801
0.0454396862
0.0450779884
0.0447191639
0.0443631901
0.0440100443
0.0436597042
0.0433121477
0.0429673529
0.0426252977
0.0422859608
0.0419493204
0.0416153554
0.0412840445
0.0409553668
0.0406293015
0.0403058279
0.0399849255
0.039666574
0.0393507531
0.0390374429
0.0387266236
0.0384182752
0.0381123785
0.0378089138
0.037507862
0.0372092039
0.0369129207
0.0366189935
0.0363274036
0.0360381325
0.0357511619
0.0354664736
0.0351840494
0.0349038714
0.0346259218
0.034350183
0.0340766374
0.0338052677
0.0335360565

shape_id 2
num_samples 1024
0.349159834
0.355395198
0.361630506
0.367865756
0.374100948
0.380336081
0.386571153
0.392806164
0.399041113
0.405275998
0.411510819
0.417745575
0.423980264
0.430214886
0.43644944
0.442683923
0.448918336
0.455152677
0.461386945
0.467621139
0.473855257
0.480089298
0.486323262
0.492557146
0.49879095
0.505024673
0.511258312
0.517491867
0.523725336
0.529958718
0.536192011
0.542425215
0.548658327
0.554891346
0.56112427
0.567357099
0.573589831
0.579822463
0.586054995
0.592287424
0.59851975
0.60475197
0.610984083
0.617216087
0.62344798
0.629679761
0.635911427
0.642142977
0.648374409
0.654605721
0.660836911
0.667067978
0.673298918
0.679529731
0.685760413
0.691990964
0.69822138
0.704451661
0.710681802
0.716911803
0.723141661
0.729371374
0.735600939
0.741830354
0.748059617
0.754288724
0.760517674
0.766746465
0.772975093
0.779203555
0.78543185
0.791659975
0.797887926
0.804115701
0.810343298
0.816570712
0.822797942
0.829024985
0.835251837
0.841478495
0.847704956
0.853931217
0.860157275
0.866383127
0.872608768
0.878834197
0.885059409
0.891284401
0.897509169
0.90373371
0.90995802
0.916182095
0.922405932
0.928629527
0.934852876
0.941075974
0.947298819
0.953521405
0.959743729
0.965965787
0.972187573
0.978409084
0.984630316
0.990851264
0.997071922
0.00329228794
0.00951235538
0.01573212
0.0219515768
0.028170721
0.0343895475
0.0406080511
0.0468262268
