# Pulseq sequence file
# Created by Python/GPI Lab

# Format of blocks:
#  #  D RF  GX  GY  GZ ADC
[BLOCKS]
 1  0  1   0   0   1  0
 2  0  0   2   3   4  0
 3  1  0   0   0   0  0
 4  0  2   0   0   1  0
 5  2  0   0   0   0  0
 6  0  0   5   0   0  1
 7  3  0   0   0   0  0
 8  0  1   0   0   1  0
 9  0  0   2   6   4  0
10  1  0   0   0   0  0
11  0  2   0   0   1  0
12  2  0   0   0   0  0
13  0  0   5   0   0  1
14  3  0   0   0   0  0

# Format of RF events:
# id amplitude mag_id phase_id freq phase
# ..        Hz   ....     ....   Hz   rad
[RF]
1      493.728 1 2 0 0
2      987.456 1 2 0 0

# Format of trapezoid gradients:
# id amplitude rise flat fall
# ..      Hz/m   us   us   us
[TRAP]
 1       400000 100 2000 100
 2       444044 110 1060 110
 3      -423729 100 1080 100
 4      -216495  60 1880  60
 5       390625 100 2560 100
 6      -420418 100 1080 100

# Format of ADC events:
# id num dwell delay freq phase
# ..  ..    ns    us   Hz   rad
[ADC]
 1 256  10000 100 0 0

# Format of delays:
# id delay (us)
[DELAYS]
1 44835
2 47565
3 1897240

# Sequence Shapes
[SHAPES]

shape_id 1
num_samples 2100
0
0
99
1.73083e-08
4.70377e-08
9.17132e-08
1.51389e-07
2.26115e-07
3.15943e-07
4.20919e-07
5.41089e-07
6.76497e-07
8.27185e-07
9.93192e-07
1.17456e-06
1.37131e-06
1.5835e-06
1.81114e-06
2.05427e-06
2.31291e-06
2.58709e-06
2.87684e-06
3.18218e-06
3.50312e-06
3.83968e-06
4.19187e-06
4.55972e-06
4.94323e-06
5.34241e-06
5.75726e-06
6.18779e-06
6.63401e-06
7.0959e-06
7.57348e-06
8.06674e-06
8.57566e-06
9.10025e-06
9.64049e-06
1.01964e-05
1.07679e-05
1.1355e-05
1.19576e-05
1.25759e-05
1.32097e-05
1.3859e-05
1.45238e-05
1.5204e-05
1.58997e-05
1.66108e-05
1.73372e-05
1.80789e-05
1.88359e-05
1.96081e-05
2.03954e-05
2.1198e-05
2.20156e-05
2.28482e-05
2.36958e-05
2.45583e-05
2.54356e-05
2.63278e-05
2.72346e-05
2.81561e-05
2.90923e-05
3.00429e-05
3.1008e-05
3.19874e-05
3.29812e-05
3.39891e-05
3.50112e-05
3.60474e-05
3.70974e-05
3.81614e-05
3.92391e-05
4.03305e-05
4.14355e-05
4.2554e-05
4.36859e-05
4.48311e-05
4.59894e-05
4.71608e-05
4.83452e-05
4.95424e-05
5.07524e-05
5.1975e-05
5.32101e-05
5.44576e-05
5.57173e-05
5.69891e-05
5.8273e-05
5.95688e-05
6.08762e-05
6.21953e-05
6.35259e-05
6.48678e-05
6.62209e-05
6.75851e-05
6.89601e-05
7.0346e-05
7.17424e-05
7.31493e-05
7.45665e-05
7.59938e-05
7.74312e-05
7.88784e-05
8.03352e-05
8.18016e-05
8.32773e-05
8.47621e-05
8.6256e-05
8.77587e-05
8.92701e-05
9.07899e-05
9.2318e-05
9.38543e-05
9.53985e-05
9.69504e-05
9.85099e-05
0.000100077
0.000101651
0.000103232
0.00010482
0.000106414
0.000108015
0.000109622
0.000111235
0.000112854
0.000114479
0.000116109
0.000117744
0.000119384
0.000121028
0.000122678
0.000124331
0.000125989
0.00012765
0.000129316
0.000130984
0.000132656
0.000134331
0.000136009
0.000137689
0.000139371
0.000141056
0.000142742
0.00014443
0.000146119
0.000147809
0.0001495
0.000151192
0.000152884
0.000154576
0.000156269
0.00015796
0.000159651
0.000161342
0.000163031
0.000164718
0.000166404
0.000168088
0.00016977
0.00017145
0.000173127
0.000174801
0.000176471
0.000178138
0.000179802
0.000181461
0.000183116
0.000184767
0.000186412
0.000188053
0.000189688
0.000191317
0.000192941
0.000194558
0.000196169
0.000197773
0.00019937
0.00020096
0.000202542
0.000204116
0.000205682
0.000207239
0.000208788
0.000210327
0.000211858
0.000213378
0.000214889
0.000216389
0.000217879
0.000219358
0.000220826
0.000222283
0.000223728
0.000225161
0.000226581
0.00022799
0.000229385
0.000230767
0.000232135
0.00023349
0.000234831
0.000236157
0.000237469
0.000238766
0.000240047
0.000241313
0.000242563
0.000243797
0.000245015
0.000246215
0.000247399
0.000248565
0.000249713
0.000250844
0.000251956
0.00025305
0.000254124
0.00025518
0.000256216
0.000257232
0.000258228
0.000259204
0.000260159
0.000261093
0.000262005
0.000262896
0.000263765
0.000264612
0.000265436
0.000266238
0.000267016
0.000267771
0.000268502
0.000269209
0.000269892
0.00027055
0.000271183
0.000271791
0.000272373
0.000272929
0.00027346
0.000273963
0.000274441
0.000274891
0.000275313
0.000275709
0.000276076
0.000276415
0.000276725
0.000277007
0.00027726
0.000277483
0.000277676
0.00027784
0.000277973
0.000278076
0.000278148
0.000278189
0.000278189
0
0.000278177
0.000278123
0.000278036
0.000277918
0.000277766
0.000277582
0.000277364
0.000277112
0.000276827
0.000276507
0.000276153
0.000275764
0.00027534
0.000274882
0.000274387
0.000273857
0.000273291
0.000272688
0.000272049
0.000271373
0.000270661
0.00026991
0.000269123
0.000268297
0.000267433
0.000266531
0.000265591
0.000264612
0.000263593
0.000262536
0.000261438
0.000260301
0.000259125
0.000257907
0.00025665
0.000255351
0.000254012
0.000252632
0.00025121
0.000249747
0.000248241
0.000246694
0.000245105
0.000243473
0.000241798
0.000240081
0.00023832
0.000236517
0.000234669
0.000232778
0.000230843
0.000228864
0.000226841
0.000224773
0.000222661
0.000220504
0.000218302
0.000216054
0.000213761
0.000211423
0.000209039
0.000206609
0.000204133
0.00020161
0.000199042
0.000196426
0.000193764
0.000191055
0.0001883
0.000185496
0.000182646
0.000179748
0.000176803
0.00017381
0.000170768
0.000167679
0.000164542
0.000161357
0.000158123
0.00015484
0.000151509
0.000148129
0.000144701
0.000141223
0.000137696
0.00013412
0.000130495
0.000126821
0.000123097
0.000119323
0.0001155
0.000111627
0.000107704
0.000103731
9.97084e-05
9.56357e-05
9.15128e-05
8.73398e-05
8.31165e-05
7.88429e-05
7.4519e-05
7.01447e-05
6.57199e-05
6.12446e-05
5.67187e-05
5.21423e-05
4.75152e-05
4.28375e-05
3.81091e-05
3.33299e-05
2.85001e-05
2.36195e-05
1.86881e-05
1.37059e-05
8.67299e-06
3.58924e-06
-1.5453e-06
-6.73064e-06
-1.19668e-05
-1.72537e-05
-2.25914e-05
-2.79798e-05
-3.34189e-05
-3.89088e-05
-4.44494e-05
-5.00406e-05
-5.56824e-05
-6.13749e-05
-6.71178e-05
-7.29113e-05
-7.87552e-05
-8.46495e-05
-9.05942e-05
-9.65891e-05
-0.000102634
-0.00010873
-0.000114875
-0.00012107
-0.000127316
-0.000133611
-0.000139956
-0.000146351
-0.000152795
-0.000159289
-0.000165832
-0.000172424
-0.000179066
-0.000185756
-0.000192496
-0.000199285
-0.000206122
-0.000213008
-0.000219942
-0.000226924
-0.000233955
-0.000241034
-0.000248161
-0.000255335
-0.000262557
-0.000269827
-0.000277144
-0.000284508
-0.000291919
-0.000299377
-0.000306881
-0.000314432
-0.000322029
-0.000329672
-0.000337361
-0.000345096
-0.000352876
-0.000360702
-0.000368573
-0.000376488
-0.000384448
-0.000392453
-0.000400502
-0.000408595
-0.000416732
-0.000424912
-0.000433136
-0.000441402
-0.000449712
-0.000458064
-0.000466459
-0.000474895
-0.000483374
-0.000491894
-0.000500455
-0.000509058
-0.000517701
-0.000526385
-0.000535109
-0.000543873
-0.000552676
-0.000561519
-0.000570402
-0.000579322
-0.000588282
-0.000597279
-0.000606315
-0.000615388
-0.000624498
-0.000633646
-0.00064283
-0.00065205
-0.000661306
-0.000670598
-0.000679925
-0.000689287
-0.000698684
-0.000708115
-0.00071758
-0.000727078
-0.00073661
-0.000746175
-0.000755772
-0.000765401
-0.000775062
-0.000784755
-0.000794479
-0.000804233
-0.000814017
-0.000823832
-0.000833676
-0.000843549
-0.00085345
-0.00086338
-0.000873338
-0.000883324
-0.000893336
-0.000903376
-0.000913441
-0.000923533
-0.00093365
-0.000943792
-0.000953958
-0.000964149
-0.000974364
-0.000984601
-0.000994862
0.00100515
0.00101545
0.00102578
0.00103612
0.00104649
0.00105688
0.00106729
0.00107772
0.00108816
0.00109863
0.00110911
0.00111961
0.00113013
0.00114066
0.00115121
0.00116178
0.00117236
0.00118295
0.00119356
0.00120418
0.00121482
0.00122547
0.00123613
0.0012468
0.00125748
0.00126818
0.00127888
0.00128959
0.00130031
0.00131104
0.00132178
0.00133253
0.00134328
0.00135404
0.00136481
0.00137558
0.00138635
0.00139713
0.00140792
0.0014187
0.00142949
0.00144029
0.00145108
0.00146188
0.00147267
0.00148347
0.00149426
0.00150506
0.00151585
0.00152664
0.00153743
0.00154821
0.00155899
0.00156977
0.00158054
0.00159131
0.00160207
0.00161282
0.00162356
0.0016343
0.00164503
0.00165575
0.00166647
0.00167717
0.00168786
0.00169854
0.00170921
0.00171986
0.0017305
0.00174113
0.00175175
0.00176235
0.00177294
0.00178351
0.00179406
0.0018046
0.00181511
0.00182562
0.0018361
0.00184656
0.001857
0.00186743
0.00187783
0.00188821
0.00189857
0.0019089
0.00191921
0.0019295
0.00193976
0.00195
0.00196021
0.0019704
0.00198056
0.00199069
0.00200079
0.00201087
0.00202091
0.00203093
0.00204091
0.00205087
0.00206079
0.00207068
0.00208054
0.00209036
0.00210015
0.00210991
0.00211963
0.00212931
0.00213896
0.00214857
0.00215815
0.00216768
0.00217718
0.00218664
0.00219606
0.00220543
0.00221477
0.00222407
0.00223332
0.00224253
0.00225169
0.00226082
0.0022699
0.00227893
0.00228792
0.00229686
0.00230575
0.0023146
0.0023234
0.00233215
0.00234085
0.0023495
0.00235811
0.00236666
0.00237516
0.00238361
0.002392
0.00240034
0.00240863
0.00241687
0.00242505
0.00243317
0.00244124
0.00244926
0.00245721
0.00246511
0.00247295
0.00248073
0.00248846
0.00249612
0.00250372
0.00251127
0.00251875
0.00252617
0.00253353
0.00254082
0.00254805
0.00255522
0.00256232
0.00256936
0.00257634
0.00258324
0.00259009
0.00259686
0.00260357
0.00261021
0.00261678
0.00262328
0.00262971
0.00263607
0.00264237
0.00264859
0.00265474
0.00266081
0.00266682
0.00267275
0.00267861
0.0026844
0.00269011
0.00269575
0.00270131
0.0027068
0.00271221
0.00271754
0.0027228
0.00272798
0.00273308
0.00273811
0.00274305
0.00274792
0.00275271
0.00275741
0.00276204
0.00276658
0.00277105
0.00277543
0.00277973
0.00278395
0.00278809
0.00279214
0.00279611
0.00279999
0.00280379
0.00280751
0.00281114
0.00281468
0.00281814
0.00282151
0.0028248
0.002828
0.00283111
0.00283413
0.00283707
0.00283992
0.00284267
0.00284534
0.00284792
0.00285041
0.00285281
0.00285512
0.00285734
0.00285947
0.00286151
0.00286345
0.0028653
0.00286706
0.00286873
0.00287031
0.00287179
0.00287318
0.00287448
0.00287568
0.00287678
0.0028778
0.00287871
0.00287954
0.00288027
0.0028809
0.00288143
0.00288188
0.00288222
0.00288247
0.00288262
0.00288268
0.00288263
0.00288249
0.00288226
0.00288192
0.00288149
0.00288096
0.00288033
0.00287961
0.00287878
0.00287786
0.00287683
0.00287571
0.00287449
0.00287317
0.00287175
0.00287023
0.00286861
0.00286689
0.00286508
0.00286316
0.00286114
0.00285902
0.0028568
0.00285448
0.00285206
0.00284953
0.00284691
0.00284419
0.00284136
0.00283844
0.00283541
0.00283229
0.00282906
0.00282573
0.0028223
0.00281876
0.00281513
0.00281139
0.00280756
0.00280362
0.00279958
0.00279544
0.0027912
0.00278685
0.00278241
0.00277786
0.00277321
0.00276846
0.00276361
0.00275866
0.00275361
0.00274845
0.0027432
0.00273784
0.00273238
0.00272682
0.00272116
0.0027154
0.00270954
0.00270358
0.00269752
0.00269135
0.00268509
0.00267873
0.00267226
0.0026657
0.00265904
0.00265227
0.00264541
0.00263845
0.00263138
0.00262422
0.00261696
0.0026096
0.00260214
0.00259459
0.00258693
0.00257918
0.00257133
0.00256338
0.00255533
0.00254719
0.00253895
0.00253061
0.00252218
0.00251364
0.00250502
0.00249629
0.00248747
0.00247856
0.00246955
0.00246044
0.00245124
0.00244194
0.00243255
0.00242307
0.00241349
0.00240382
0.00239406
0.0023842
0.00237425
0.00236421
0.00235407
0.00234384
0.00233353
0.00232312
0.00231262
0.00230203
0.00229135
0.00228058
0.00226972
0.00225877
0.00224774
0.00223661
0.0022254
0.0022141
0.00220271
0.00219124
0.00217968
0.00216803
0.0021563
0.00214448
0.00213258
0.00212059
0.00210852
0.00209637
0.00208413
0.00207181
0.0020594
0.00204692
0.00203435
0.00202171
0.00200898
0.00199617
0.00198328
0.00197032
0.00195727
0.00194415
0.00193095
0.00191767
0.00190431
0.00189088
0.00187737
0.00186379
0.00185013
0.0018364
0.0018226
0.00180872
0.00179476
0.00178074
0.00176664
0.00175248
0.00173824
0.00172393
0.00170955
0.00169511
0.00168059
0.00166601
0.00165136
0.00163664
0.00162186
0.00160701
0.0015921
0.00157712
0.00156207
0.00154697
0.0015318
0.00151657
0.00150127
0.00148592
0.0014705
0.00145503
0.0014395
0.0014239
0.00140825
0.00139255
0.00137678
0.00136096
0.00134508
0.00132915
0.00131317
0.00129713
0.00128103
0.00126489
0.00124869
0.00123245
0.00121615
0.0011998
0.0011834
0.00116696
0.00115046
0.00113392
0.00111734
0.0011007
0.00108402
0.0010673
0.00105053
0.00103372
0.00101687
0.000999978
0.000983043
0.000966067
0.000949052
0.000931998
0.000914905
0.000897774
0.000880607
0.000863403
0.000846163
0.000828889
0.000811581
0.000794239
0.000776864
0.000759457
0.000742019
0.000724551
0.000707052
0.000689524
0.000671968
0.000654384
0.000636773
0.000619135
0.000601472
0.000583784
0.000566072
0.000548337
0.000530579
0.000512799
0.000494997
0.000477176
0.000459334
0.000441474
0.000423595
0.000405699
0.000387785
0.000369856
0.000351912
0.000333953
0.00031598
0.000297994
0.000279996
0.000261986
0.000243965
0.000225934
0.000207894
0.000189845
0.000171788
0.000153724
0.000135654
0.000117578
9.94975e-05
8.14127e-05
6.33245e-05
4.52337e-05
2.71409e-05
9.04711e-06
-9.04711e-06
-2.71409e-05
-4.52337e-05
-6.33245e-05
-8.14127e-05
-9.94975e-05
-0.000117578
-0.000135654
-0.000153724
-0.000171788
-0.000189845
-0.000207894
-0.000225934
-0.000243965
-0.000261986
-0.000279996
-0.000297994
-0.00031598
-0.000333953
-0.000351912
-0.000369856
-0.000387785
-0.000405699
-0.000423595
-0.000441474
-0.000459334
-0.000477176
-0.000494997
-0.000512799
-0.000530579
-0.000548337
-0.000566072
-0.000583784
-0.000601472
-0.000619135
-0.000636773
-0.000654384
-0.000671968
-0.000689524
-0.000707052
-0.000724551
-0.000742019
-0.000759457
-0.000776864
-0.000794239
-0.000811581
-0.000828889
-0.000846163
-0.000863403
-0.000880607
-0.000897774
-0.000914905
-0.000931998
-0.000949052
-0.000966067
-0.000983043
-0.000999978
-0.00101687
-0.00103372
-0.00105053
-0.0010673
-0.00108402
-0.0011007
-0.00111734
-0.00113392
-0.00115046
-0.00116696
-0.0011834
-0.0011998
-0.00121615
-0.00123245
-0.00124869
-0.00126489
-0.00128103
-0.00129713
-0.00131317
-0.00132915
-0.00134508
-0.00136096
-0.00137678
-0.00139255
-0.00140825
-0.0014239
-0.0014395
-0.00145503
-0.0014705
-0.00148592
-0.00150127
-0.00151657
-0.0015318
-0.00154697
-0.00156207
-0.00157712
-0.0015921
-0.00160701
-0.00162186
-0.00163664
-0.00165136
-0.00166601
-0.00168059
-0.00169511
-0.00170955
-0.00172393
-0.00173824
-0.00175248
-0.00176664
-0.00178074
-0.00179476
-0.00180872
-0.0018226
-0.0018364
-0.00185013
-0.00186379
-0.00187737
-0.00189088
-0.00190431
-0.00191767
-0.00193095
-0.00194415
-0.00195727
-0.00197032
-0.00198328
-0.00199617
-0.00200898
-0.00202171
-0.00203435
-0.00204692
-0.0020594
-0.00207181
-0.00208413
-0.00209637
-0.00210852
-0.00212059
-0.00213258
-0.00214448
-0.0021563
-0.00216803
-0.00217968
-0.00219124
-0.00220271
-0.0022141
-0.0022254
-0.00223661
-0.00224774
-0.00225877
-0.00226972
-0.00228058
-0.00229135
-0.00230203
-0.00231262
-0.00232312
-0.00233353
-0.00234384
-0.00235407
-0.00236421
-0.00237425
-0.0023842
-0.00239406
-0.00240382
-0.00241349
-0.00242307
-0.00243255
-0.00244194
-0.00245124
-0.00246044
-0.00246955
-0.00247856
-0.00248747
-0.00249629
-0.00250502
-0.00251364
-0.00252218
-0.00253061
-0.00253895
-0.00254719
-0.00255533
-0.00256338
-0.00257133
-0.00257918
-0.00258693
-0.00259459
-0.00260214
-0.0026096
-0.00261696
-0.00262422
-0.00263138
-0.00263845
-0.00264541
-0.00265227
-0.00265904
-0.0026657
-0.00267226
-0.00267873
-0.00268509
-0.00269135
-0.00269752
-0.00270358
-0.00270954
-0.0027154
-0.00272116
-0.00272682
-0.00273238
-0.00273784
-0.0027432
-0.00274845
-0.00275361
-0.00275866
-0.00276361
-0.00276846
-0.00277321
-0.00277786
-0.00278241
-0.00278685
-0.0027912
-0.00279544
-0.00279958
-0.00280362
-0.00280756
-0.00281139
-0.00281513
-0.00281876
-0.0028223
-0.00282573
-0.00282906
-0.00283229
-0.00283541
-0.00283844
-0.00284136
-0.00284419
-0.00284691
-0.00284953
-0.00285206
-0.00285448
-0.0028568
-0.00285902
-0.00286114
-0.00286316
-0.00286508
-0.00286689
-0.00286861
-0.00287023
-0.00287175
-0.00287317
-0.00287449
-0.00287571
-0.00287683
-0.00287786
-0.00287878
-0.00287961
-0.00288033
-0.00288096
-0.00288149
-0.00288192
-0.00288226
-0.00288249
-0.00288263
-0.00288268
-0.00288262
-0.00288247
-0.00288222
-0.00288188
-0.00288143
-0.0028809
-0.00288027
-0.00287954
-0.00287871
-0.0028778
-0.00287678
-0.00287568
-0.00287448
-0.00287318
-0.00287179
-0.00287031
-0.00286873
-0.00286706
-0.0028653
-0.00286345
-0.00286151
-0.00285947
-0.00285734
-0.00285512
-0.00285281
-0.00285041
-0.00284792
-0.00284534
-0.00284267
-0.00283992
-0.00283707
-0.00283413
-0.00283111
-0.002828
-0.0028248
-0.00282151
-0.00281814
-0.00281468
-0.00281114
-0.00280751
-0.00280379
-0.00279999
-0.00279611
-0.00279214
-0.00278809
-0.00278395
-0.00277973
-0.00277543
-0.00277105
-0.00276658
-0.00276204
-0.00275741
-0.00275271
-0.00274792
-0.00274305
-0.00273811
-0.00273308
-0.00272798
-0.0027228
-0.00271754
-0.00271221
-0.0027068
-0.00270131
-0.00269575
-0.00269011
-0.0026844
-0.00267861
-0.00267275
-0.00266682
-0.00266081
-0.00265474
-0.00264859
-0.00264237
-0.00263607
-0.00262971
-0.00262328
-0.00261678
-0.00261021
-0.00260357
-0.00259686
-0.00259009
-0.00258324
-0.00257634
-0.00256936
-0.00256232
-0.00255522
-0.00254805
-0.00254082
-0.00253353
-0.00252617
-0.00251875
-0.00251127
-0.00250372
-0.00249612
-0.00248846
-0.00248073
-0.00247295
-0.00246511
-0.00245721
-0.00244926
-0.00244124
-0.00243317
-0.00242505
-0.00241687
-0.00240863
-0.00240034
-0.002392
-0.00238361
-0.00237516
-0.00236666
-0.00235811
-0.0023495
-0.00234085
-0.00233215
-0.0023234
-0.0023146
-0.00230575
-0.00229686
-0.00228792
-0.00227893
-0.0022699
-0.00226082
-0.00225169
-0.00224253
-0.00223332
-0.00222407
-0.00221477
-0.00220543
-0.00219606
-0.00218664
-0.00217718
-0.00216768
-0.00215815
-0.00214857
-0.00213896
-0.00212931
-0.00211963
-0.00210991
-0.00210015
-0.00209036
-0.00208054
-0.00207068
-0.00206079
-0.00205087
-0.00204091
-0.00203093
-0.00202091
-0.00201087
-0.00200079
-0.00199069
-0.00198056
-0.0019704
-0.00196021
-0.00195
-0.00193976
-0.0019295
-0.00191921
-0.0019089
-0.00189857
-0.00188821
-0.00187783
-0.00186743
-0.001857
-0.00184656
-0.0018361
-0.00182562
-0.00181511
-0.0018046
-0.00179406
-0.00178351
-0.00177294
-0.00176235
-0.00175175
-0.00174113
-0.0017305
-0.00171986
-0.00170921
-0.00169854
-0.00168786
-0.00167717
-0.00166647
-0.00165575
-0.00164503
-0.0016343
-0.00162356
-0.00161282
-0.00160207
-0.00159131
-0.00158054
-0.00156977
-0.00155899
-0.00154821
-0.00153743
-0.00152664
-0.00151585
-0.00150506
-0.00149426
-0.00148347
-0.00147267
-0.00146188
-0.00145108
-0.00144029
-0.00142949
-0.0014187
-0.00140792
-0.00139713
-0.00138635
-0.00137558
-0.00136481
-0.00135404
-0.00134328
-0.00133253
-0.00132178
-0.00131104
-0.00130031
-0.00128959
-0.00127888
-0.00126818
-0.00125748
-0.0012468
-0.00123613
-0.00122547
-0.00121482
-0.00120418
-0.00119356
-0.00118295
-0.00117236
-0.00116178
-0.00115121
-0.00114066
-0.00113013
-0.00111961
-0.00110911
-0.00109863
-0.00108816
-0.00107772
-0.00106729
-0.00105688
-0.00104649
-0.00103612
-0.00102578
-0.00101545
-0.00100515
0.000994862
0.000984601
0.000974364
0.000964149
0.000953958
0.000943792
0.00093365
0.000923533
0.000913441
0.000903376
0.000893336
0.000883324
0.000873338
0.00086338
0.00085345
0.000843549
0.000833676
0.000823832
0.000814017
0.000804233
0.000794479
0.000784755
0.000775062
0.000765401
0.000755772
0.000746175
0.00073661
0.000727078
0.00071758
0.000708115
0.000698684
0.000689287
0.000679925
0.000670598
0.000661306
0.00065205
0.00064283
0.000633646
0.000624498
0.000615388
0.000606315
0.000597279
0.000588282
0.000579322
0.000570402
0.000561519
0.000552676
0.000543873
0.000535109
0.000526385
0.000517701
0.000509058
0.000500455
0.000491894
0.000483374
0.000474895
0.000466459
0.000458064
0.000449712
0.000441402
0.000433136
0.000424912
0.000416732
0.000408595
0.000400502
0.000392453
0.000384448
0.000376488
0.000368573
0.000360702
0.000352876
0.000345096
0.000337361
0.000329672
0.000322029
0.000314432
0.000306881
0.000299377
0.000291919
0.000284508
0.000277144
0.000269827
0.000262557
0.000255335
0.000248161
0.000241034
0.000233955
0.000226924
0.000219942
0.000213008
0.000206122
0.000199285
0.000192496
0.000185756
0.000179066
0.000172424
0.000165832
0.000159289
0.000152795
0.000146351
0.000139956
0.000133611
0.000127316
0.00012107
0.000114875
0.00010873
0.000102634
9.65891e-05
9.05942e-05
8.46495e-05
7.87552e-05
7.29113e-05
6.71178e-05
6.13749e-05
5.56824e-05
5.00406e-05
4.44494e-05
3.89088e-05
3.34189e-05
2.79798e-05
2.25914e-05
1.72537e-05
1.19668e-05
6.73064e-06
1.5453e-06
-3.58924e-06
-8.67299e-06
-1.37059e-05
-1.86881e-05
-2.36195e-05
-2.85001e-05
-3.33299e-05
-3.81091e-05
-4.28375e-05
-4.75152e-05
-5.21423e-05
-5.67187e-05
-6.12446e-05
-6.57199e-05
-7.01447e-05
-7.4519e-05
-7.88429e-05
-8.31165e-05
-8.73398e-05
-9.15128e-05
-9.56357e-05
-9.97084e-05
-0.000103731
-0.000107704
-0.000111627
-0.0001155
-0.000119323
-0.000123097
-0.000126821
-0.000130495
-0.00013412
-0.000137696
-0.000141223
-0.000144701
-0.000148129
-0.000151509
-0.00015484
-0.000158123
-0.000161357
-0.000164542
-0.000167679
-0.000170768
-0.00017381
-0.000176803
-0.000179748
-0.000182646
-0.000185496
-0.0001883
-0.000191055
-0.000193764
-0.000196426
-0.000199042
-0.00020161
-0.000204133
-0.000206609
-0.000209039
-0.000211423
-0.000213761
-0.000216054
-0.000218302
-0.000220504
-0.000222661
-0.000224773
-0.000226841
-0.000228864
-0.000230843
-0.000232778
-0.000234669
-0.000236517
-0.00023832
-0.000240081
-0.000241798
-0.000243473
-0.000245105
-0.000246694
-0.000248241
-0.000249747
-0.00025121
-0.000252632
-0.000254012
-0.000255351
-0.00025665
-0.000257907
-0.000259125
-0.000260301
-0.000261438
-0.000262536
-0.000263593
-0.000264612
-0.000265591
-0.000266531
-0.000267433
-0.000268297
-0.000269123
-0.00026991
-0.000270661
-0.000271373
-0.000272049
-0.000272688
-0.000273291
-0.000273857
-0.000274387
-0.000274882
-0.00027534
-0.000275764
-0.000276153
-0.000276507
-0.000276827
-0.000277112
-0.000277364
-0.000277582
-0.000277766
-0.000277918
-0.000278036
-0.000278123
-0.000278177
-0.000278199
-0.000278199
0
-0.000278148
-0.000278076
-0.000277973
-0.00027784
-0.000277676
-0.000277483
-0.00027726
-0.000277007
-0.000276725
-0.000276415
-0.000276076
-0.000275709
-0.000275313
-0.000274891
-0.000274441
-0.000273963
-0.00027346
-0.000272929
-0.000272373
-0.000271791
-0.000271183
-0.00027055
-0.000269892
-0.000269209
-0.000268502
-0.000267771
-0.000267016
-0.000266238
-0.000265436
-0.000264612
-0.000263765
-0.000262896
-0.000262005
-0.000261093
-0.000260159
-0.000259204
-0.000258228
-0.000257232
-0.000256216
-0.00025518
-0.000254124
-0.00025305
-0.000251956
-0.000250844
-0.000249713
-0.000248565
-0.000247399
-0.000246215
-0.000245015
-0.000243797
-0.000242563
-0.000241313
-0.000240047
-0.000238766
-0.000237469
-0.000236157
-0.000234831
-0.00023349
-0.000232135
-0.000230767
-0.000229385
-0.00022799
-0.000226581
-0.000225161
-0.000223728
-0.000222283
-0.000220826
-0.000219358
-0.000217879
-0.000216389
-0.000214889
-0.000213378
-0.000211858
-0.000210327
-0.000208788
-0.000207239
-0.000205682
-0.000204116
-0.000202542
-0.00020096
-0.00019937
-0.000197773
-0.000196169
-0.000194558
-0.000192941
-0.000191317
-0.000189688
-0.000188053
-0.000186412
-0.000184767
-0.000183116
-0.000181461
-0.000179802
-0.000178138
-0.000176471
-0.000174801
-0.000173127
-0.00017145
-0.00016977
-0.000168088
-0.000166404
-0.000164718
-0.000163031
-0.000161342
-0.000159651
-0.00015796
-0.000156269
-0.000154576
-0.000152884
-0.000151192
-0.0001495
-0.000147809
-0.000146119
-0.00014443
-0.000142742
-0.000141056
-0.000139371
-0.000137689
-0.000136009
-0.000134331
-0.000132656
-0.000130984
-0.000129316
-0.00012765
-0.000125989
-0.000124331
-0.000122678
-0.000121028
-0.000119384
-0.000117744
-0.000116109
-0.000114479
-0.000112854
-0.000111235
-0.000109622
-0.000108015
-0.000106414
-0.00010482
-0.000103232
-0.000101651
-0.000100077
-9.85099e-05
-9.69504e-05
-9.53985e-05
-9.38543e-05
-9.2318e-05
-9.07899e-05
-8.92701e-05
-8.77587e-05
-8.6256e-05
-8.47621e-05
-8.32773e-05
-8.18016e-05
-8.03352e-05
-7.88784e-05
-7.74312e-05
-7.59938e-05
-7.45665e-05
-7.31493e-05
-7.17424e-05
-7.0346e-05
-6.89601e-05
-6.75851e-05
-6.62209e-05
-6.48678e-05
-6.35259e-05
-6.21953e-05
-6.08762e-05
-5.95688e-05
-5.8273e-05
-5.69891e-05
-5.57173e-05
-5.44576e-05
-5.32101e-05
-5.1975e-05
-5.07524e-05
-4.95424e-05
-4.83452e-05
-4.71608e-05
-4.59894e-05
-4.48311e-05
-4.36859e-05
-4.2554e-05
-4.14355e-05
-4.03305e-05
-3.92391e-05
-3.81614e-05
-3.70974e-05
-3.60474e-05
-3.50112e-05
-3.39891e-05
-3.29812e-05
-3.19874e-05
-3.1008e-05
-3.00429e-05
-2.90923e-05
-2.81561e-05
-2.72346e-05
-2.63278e-05
-2.54356e-05
-2.45583e-05
-2.36958e-05
-2.28482e-05
-2.20156e-05
-2.1198e-05
-2.03954e-05
-1.96081e-05
-1.88359e-05
-1.80789e-05
-1.73372e-05
-1.66108e-05
-1.58997e-05
-1.5204e-05
-1.45238e-05
-1.3859e-05
-1.32097e-05
-1.25759e-05
-1.19576e-05
-1.1355e-05
-1.07679e-05
-1.01964e-05
-9.64049e-06
-9.10025e-06
-8.57566e-06
-8.06674e-06
-7.57348e-06
-7.0959e-06
-6.63401e-06
-6.18779e-06
-5.75726e-06
-5.34241e-06
-4.94323e-06
-4.55972e-06
-4.19187e-06
-3.83968e-06
-3.50312e-06
-3.18218e-06
-2.87684e-06
-2.58709e-06
-2.31291e-06
-2.05427e-06
-1.81114e-06
-1.5835e-06
-1.37131e-06
-1.17456e-06
-9.93192e-07
-8.27185e-07
-6.76497e-07
-5.41089e-07
-4.20919e-07
-3.15943e-07
-2.26115e-07
-1.51389e-07
-9.17132e-08
-4.70377e-08
-1.73083e-08
-2.46985e-09

shape_id 2
num_samples 2100
0
0
98
0.5
0
0
496
-0.5
0
0
998
0.5
0
0
496
-0.5

